Date,Open,High,Low,Close,Adj Close,Volume
2019-01-01,29.0,30.0,28.200000762939453,29.0,29.0,4590
2019-01-02,28.5,29.700000762939453,28.5,29.299999237060547,29.299999237060547,6361
2019-01-03,29.0,29.149999618530273,28.5,28.850000381469727,28.850000381469727,9396
2019-01-04,29.0,29.450000762939453,28.5,29.299999237060547,29.299999237060547,8863
2019-01-07,28.600000381469727,30.0,28.600000381469727,29.049999237060547,29.049999237060547,3107
2019-01-08,28.149999618530273,30.5,28.149999618530273,30.200000762939453,30.200000762939453,29775
2019-01-09,30.200000762939453,31.0,29.700000762939453,29.950000762939453,29.950000762939453,41795
2019-01-10,30.899999618530273,30.899999618530273,29.700000762939453,30.0,30.0,45485
2019-01-11,29.600000381469727,31.0,29.5,29.700000762939453,29.700000762939453,81670
2019-01-14,29.950000762939453,29.950000762939453,28.5,28.75,28.75,104588
2019-01-15,28.200000762939453,28.899999618530273,27.600000381469727,27.649999618530273,27.649999618530273,52565
2019-01-16,27.600000381469727,27.649999618530273,26.299999237060547,26.299999237060547,26.299999237060547,100561
2019-01-17,26.0,26.0,25.200000762939453,25.5,25.5,113250
2019-01-18,25.0,25.700000762939453,24.350000381469727,24.549999237060547,24.549999237060547,47623
2019-01-21,24.100000381469727,24.399999618530273,23.600000381469727,24.299999237060547,24.299999237060547,55720
2019-01-22,23.899999618530273,24.200000762939453,23.5,24.0,24.0,74663
2019-01-23,24.0,24.799999237060547,24.0,24.350000381469727,24.350000381469727,25278
2019-01-24,24.350000381469727,24.549999237060547,23.799999237060547,23.950000762939453,23.950000762939453,36712
2019-01-25,23.799999237060547,24.450000762939453,23.75,23.799999237060547,23.799999237060547,38182
2019-01-28,23.799999237060547,23.799999237060547,22.700000762939453,22.850000381469727,22.850000381469727,152089
2019-01-29,23.350000381469727,23.549999237060547,23.0,23.350000381469727,23.350000381469727,65070
2019-01-30,23.100000381469727,24.25,23.100000381469727,24.100000381469727,24.100000381469727,55417
2019-01-31,24.0,24.5,24.0,24.100000381469727,24.100000381469727,13843
2019-02-01,24.100000381469727,24.850000381469727,23.700000762939453,24.5,24.5,16972
2019-02-04,24.0,24.0,23.299999237060547,23.350000381469727,23.350000381469727,47319
2019-02-05,23.100000381469727,23.5,22.5,22.649999618530273,22.649999618530273,13792
2019-02-06,22.350000381469727,23.649999618530273,22.350000381469727,23.049999237060547,23.049999237060547,12456
2019-02-07,23.200000762939453,23.25,22.600000381469727,23.0,23.0,15537
2019-02-08,22.799999237060547,23.100000381469727,22.75,22.799999237060547,22.799999237060547,18320
2019-02-11,22.649999618530273,23.25,22.0,22.350000381469727,22.350000381469727,18852
2019-02-12,22.700000762939453,22.75,22.0,22.100000381469727,22.100000381469727,14535
2019-02-14,22.399999618530273,22.399999618530273,21.549999237060547,21.75,21.75,12568
2019-02-15,21.799999237060547,22.100000381469727,21.649999618530273,22.0,22.0,8118
2019-02-18,22.049999237060547,22.049999237060547,20.899999618530273,20.950000762939453,20.950000762939453,63665
2019-02-19,20.950000762939453,21.5,20.700000762939453,21.25,21.25,14879
2019-02-20,20.399999618530273,21.399999618530273,20.399999618530273,20.799999237060547,20.799999237060547,19364
2019-02-21,21.200000762939453,21.5,21.0,21.5,21.5,26510
2019-02-22,21.450000762939453,22.350000381469727,21.200000762939453,22.0,22.0,25356
2019-02-25,22.0,22.5,21.850000381469727,21.950000762939453,21.950000762939453,15093
2019-02-26,22.0,22.700000762939453,21.600000381469727,22.549999237060547,22.549999237060547,12093
2019-02-27,22.549999237060547,22.899999618530273,21.450000762939453,21.450000762939453,21.450000762939453,23431
2019-02-28,21.149999618530273,21.899999618530273,20.5,21.649999618530273,21.649999618530273,27074
2019-03-01,21.950000762939453,22.700000762939453,21.399999618530273,22.649999618530273,22.649999618530273,19396
2019-03-05,22.649999618530273,23.75,22.549999237060547,23.600000381469727,23.600000381469727,18783
2019-03-06,23.649999618530273,24.549999237060547,23.649999618530273,24.200000762939453,24.200000762939453,15172
2019-03-07,23.899999618530273,24.200000762939453,23.75,23.950000762939453,23.950000762939453,8950
2019-03-08,23.75,23.850000381469727,22.950000762939453,23.200000762939453,23.200000762939453,32655
2019-03-11,22.899999618530273,23.700000762939453,22.850000381469727,23.700000762939453,23.700000762939453,40181
2019-03-12,23.350000381469727,24.0,23.350000381469727,23.700000762939453,23.700000762939453,33281
2019-03-13,23.549999237060547,23.799999237060547,23.0,23.149999618530273,23.149999618530273,7406
2019-03-14,23.049999237060547,23.399999618530273,22.100000381469727,22.700000762939453,22.700000762939453,8224
2019-03-15,22.950000762939453,23.299999237060547,22.600000381469727,23.049999237060547,23.049999237060547,76583
2019-03-18,22.850000381469727,23.600000381469727,22.5,23.0,23.0,5729
2019-03-19,22.399999618530273,23.399999618530273,22.399999618530273,23.049999237060547,23.049999237060547,36959
2019-03-20,23.0,23.0,22.299999237060547,22.5,22.5,15932
2019-03-22,22.649999618530273,23.0,22.299999237060547,22.649999618530273,22.649999618530273,8530
2019-03-25,22.600000381469727,22.600000381469727,21.600000381469727,22.100000381469727,22.100000381469727,8978
2019-03-26,22.200000762939453,22.200000762939453,21.600000381469727,21.850000381469727,21.850000381469727,39659
2019-03-27,21.950000762939453,22.399999618530273,21.549999237060547,21.75,21.75,66944
2019-03-28,21.75,22.0,21.299999237060547,21.399999618530273,21.399999618530273,48384
2019-04-01,21.350000381469727,22.350000381469727,21.350000381469727,22.350000381469727,22.350000381469727,25329
2019-04-02,22.350000381469727,23.149999618530273,22.350000381469727,22.600000381469727,22.600000381469727,6275
2019-04-03,22.600000381469727,23.100000381469727,22.149999618530273,22.350000381469727,22.350000381469727,11215
2019-04-04,22.350000381469727,22.5,22.100000381469727,22.200000762939453,22.200000762939453,3611
2019-04-05,22.25,22.600000381469727,22.049999237060547,22.399999618530273,22.399999618530273,10451
2019-04-08,21.649999618530273,22.75,21.649999618530273,22.350000381469727,22.350000381469727,8673
2019-04-09,22.299999237060547,22.899999618530273,22.100000381469727,22.299999237060547,22.299999237060547,60257
2019-04-10,22.25,22.899999618530273,22.100000381469727,22.5,22.5,56474
2019-04-11,23.5,23.5,22.25,22.25,22.25,17758
2019-04-12,22.25,22.799999237060547,22.100000381469727,22.299999237060547,22.299999237060547,14506
2019-04-15,22.5,23.0,22.5,22.5,22.5,20060
2019-04-16,22.049999237060547,22.950000762939453,22.049999237060547,22.25,22.25,14395
2019-04-18,22.200000762939453,22.899999618530273,22.200000762939453,22.399999618530273,22.399999618530273,11678
2019-04-22,22.049999237060547,22.399999618530273,21.399999618530273,21.450000762939453,21.450000762939453,18190
2019-04-23,21.149999618530273,22.600000381469727,20.850000381469727,20.950000762939453,20.950000762939453,44977
2019-04-24,22.649999618530273,22.649999618530273,20.950000762939453,21.149999618530273,21.149999618530273,9312
2019-04-25,21.25,21.700000762939453,21.049999237060547,21.149999618530273,21.149999618530273,8157
2019-04-26,21.25,21.5,20.799999237060547,21.0,21.0,13200
2019-04-30,21.049999237060547,21.049999237060547,20.100000381469727,20.5,20.5,5497
2019-05-02,21.350000381469727,21.350000381469727,20.049999237060547,20.700000762939453,20.700000762939453,12073
2019-05-03,20.600000381469727,22.700000762939453,20.600000381469727,20.799999237060547,20.799999237060547,38700
2019-05-06,20.350000381469727,20.950000762939453,20.299999237060547,20.549999237060547,20.549999237060547,5593
2019-05-07,20.200000762939453,20.899999618530273,20.200000762939453,20.850000381469727,20.850000381469727,1263
2019-05-08,20.649999618530273,20.899999618530273,19.850000381469727,20.299999237060547,20.299999237060547,5383
2019-05-09,20.350000381469727,20.700000762939453,19.950000762939453,20.700000762939453,20.700000762939453,1456
2019-05-10,20.649999618530273,21.0,20.0,20.700000762939453,20.700000762939453,14337
2019-05-13,20.549999237060547,20.549999237060547,19.950000762939453,20.049999237060547,20.049999237060547,4761
2019-05-14,20.049999237060547,20.200000762939453,18.950000762939453,19.899999618530273,19.899999618530273,18053
2019-05-15,20.049999237060547,21.25,20.0,21.100000381469727,21.100000381469727,37221
2019-05-16,20.450000762939453,21.450000762939453,20.399999618530273,20.950000762939453,20.950000762939453,10592
2019-05-17,21.149999618530273,21.600000381469727,20.600000381469727,21.200000762939453,21.200000762939453,7247
2019-05-20,20.799999237060547,21.899999618530273,20.799999237060547,21.700000762939453,21.700000762939453,41718
2019-05-21,21.100000381469727,21.649999618530273,20.950000762939453,21.450000762939453,21.450000762939453,8235
2019-05-22,21.25,21.5,20.850000381469727,20.899999618530273,20.899999618530273,4591
2019-05-23,21.049999237060547,21.700000762939453,21.049999237060547,21.200000762939453,21.200000762939453,14547
2019-05-24,21.100000381469727,21.899999618530273,21.0,21.75,21.75,14135
2019-05-27,21.5,22.25,21.5,22.0,22.0,11571
2019-05-28,21.299999237060547,22.0,21.200000762939453,21.700000762939453,21.700000762939453,2153
2019-05-29,21.25,21.75,21.25,21.399999618530273,21.399999618530273,2986
2019-05-30,21.5,22.25,21.100000381469727,21.600000381469727,21.600000381469727,20294
2019-05-31,21.549999237060547,22.049999237060547,20.75,20.950000762939453,20.950000762939453,37653
2019-06-03,21.399999618530273,21.399999618530273,20.299999237060547,20.799999237060547,20.799999237060547,13397
2019-06-04,20.75,20.75,20.200000762939453,20.299999237060547,20.299999237060547,24843
2019-06-06,20.100000381469727,20.899999618530273,19.899999618530273,20.399999618530273,20.399999618530273,20453
2019-06-07,20.899999618530273,21.0,19.950000762939453,20.700000762939453,20.700000762939453,7701
2019-06-10,20.549999237060547,20.899999618530273,19.899999618530273,20.0,20.0,10434
2019-06-11,20.0,20.450000762939453,19.950000762939453,20.25,20.25,2458
2019-06-12,20.25,20.700000762939453,20.0,20.149999618530273,20.149999618530273,5791
2019-06-13,20.049999237060547,20.549999237060547,19.649999618530273,20.0,20.0,21864
2019-06-14,20.049999237060547,20.100000381469727,19.75,20.0,20.0,32694
2019-06-17,19.899999618530273,19.899999618530273,18.600000381469727,19.100000381469727,19.100000381469727,18290
2019-06-18,19.049999237060547,22.0,18.25,18.899999618530273,18.899999618530273,56375
2019-06-19,19.049999237060547,19.049999237060547,16.100000381469727,17.399999618530273,17.399999618530273,139206
2019-06-20,16.450000762939453,18.700000762939453,16.200000762939453,17.149999618530273,17.149999618530273,14094
2019-06-21,16.950000762939453,17.649999618530273,16.549999237060547,17.5,17.5,16784
2019-06-24,17.299999237060547,18.350000381469727,16.799999237060547,17.0,17.0,22757
2019-06-25,17.299999237060547,18.200000762939453,17.049999237060547,18.100000381469727,18.100000381469727,10817
2019-06-26,17.549999237060547,20.0,17.299999237060547,18.25,18.25,11177
2019-06-27,18.149999618530273,18.600000381469727,17.700000762939453,18.299999237060547,18.299999237060547,40016
2019-06-28,18.100000381469727,19.149999618530273,18.049999237060547,19.049999237060547,19.049999237060547,30035
2019-07-01,18.899999618530273,19.700000762939453,18.75,19.0,19.0,4134
2019-07-02,19.450000762939453,19.450000762939453,18.700000762939453,18.799999237060547,18.799999237060547,1985
2019-07-03,18.549999237060547,18.75,18.100000381469727,18.399999618530273,18.399999618530273,4514
2019-07-04,18.299999237060547,19.049999237060547,18.100000381469727,18.950000762939453,18.950000762939453,13461
2019-07-05,19.700000762939453,19.700000762939453,18.5,19.049999237060547,19.049999237060547,11296
2019-07-08,18.899999618530273,18.899999618530273,18.149999618530273,18.25,18.25,3893
2019-07-09,18.0,18.700000762939453,18.0,18.549999237060547,18.549999237060547,3922
2019-07-10,18.200000762939453,18.299999237060547,17.0,17.5,17.5,61844
2019-07-11,18.25,18.25,17.200000762939453,17.350000381469727,17.350000381469727,10578
2019-07-12,18.25,18.25,17.200000762939453,17.399999618530273,17.399999618530273,5821
2019-07-15,16.649999618530273,17.700000762939453,16.649999618530273,17.0,17.0,25640
2019-07-16,17.149999618530273,17.149999618530273,16.399999618530273,16.5,16.5,53443
2019-07-17,16.600000381469727,17.399999618530273,16.450000762939453,16.850000381469727,16.850000381469727,40996
2019-07-18,16.700000762939453,17.200000762939453,16.5,16.700000762939453,16.700000762939453,21143
2019-07-19,16.5,17.399999618530273,16.5,16.799999237060547,16.799999237060547,9550
2019-07-22,16.399999618530273,16.399999618530273,15.600000381469727,16.25,16.25,13445
2019-07-23,17.100000381469727,17.100000381469727,16.149999618530273,16.350000381469727,16.350000381469727,9303
2019-07-24,16.149999618530273,16.450000762939453,16.0,16.149999618530273,16.149999618530273,8486
2019-07-25,16.25,16.450000762939453,16.0,16.25,16.25,4729
2019-07-26,15.199999809265137,17.149999618530273,15.199999809265137,16.899999618530273,16.899999618530273,11788
2019-07-29,16.5,16.899999618530273,16.25,16.649999618530273,16.649999618530273,15816
2019-07-30,16.899999618530273,17.5,16.149999618530273,16.350000381469727,16.350000381469727,18249
2019-07-31,16.0,17.200000762939453,16.0,16.450000762939453,16.450000762939453,12493
2019-08-01,16.549999237060547,16.600000381469727,15.899999618530273,16.0,16.0,3533
2019-08-02,15.800000190734863,16.0,15.600000381469727,15.649999618530273,15.649999618530273,8387
2019-08-05,15.100000381469727,16.5,13.800000190734863,15.100000381469727,15.100000381469727,79633
2019-08-06,15.649999618530273,15.75,15.050000190734863,15.149999618530273,15.149999618530273,12487
2019-08-07,15.25,15.5,15.050000190734863,15.149999618530273,15.149999618530273,7858
2019-08-08,15.149999618530273,15.899999618530273,14.899999618530273,15.0,15.0,3168
2019-08-09,15.0,16.5,14.800000190734863,15.75,15.75,4925
2019-08-13,15.699999809265137,15.699999809265137,14.050000190734863,14.5,14.5,18415
2019-08-14,14.600000381469727,14.949999809265137,14.350000381469727,14.550000190734863,14.550000190734863,10340
2019-08-16,14.350000381469727,15.100000381469727,14.25,15.0,15.0,23940
2019-08-19,14.949999809265137,15.050000190734863,14.300000190734863,14.449999809265137,14.449999809265137,14944
2019-08-20,14.25,14.600000381469727,14.0,14.050000190734863,14.050000190734863,32256
2019-08-21,13.300000190734863,14.0,13.300000190734863,13.850000381469727,13.850000381469727,21559
2019-08-22,14.0,14.0,12.949999809265137,12.949999809265137,12.949999809265137,31362
2019-08-23,12.699999809265137,13.5,12.649999618530273,13.100000381469727,13.100000381469727,10110
2019-08-26,13.350000381469727,14.449999809265137,13.300000190734863,13.800000190734863,13.800000190734863,6006
2019-08-27,13.850000381469727,14.600000381469727,13.699999809265137,13.800000190734863,13.800000190734863,16928
2019-08-28,13.800000190734863,14.399999618530273,13.800000190734863,14.0,14.0,6692
2019-08-29,13.5,14.0,13.399999618530273,13.75,13.75,4545
2019-08-30,13.699999809265137,14.449999809265137,13.649999618530273,13.899999618530273,13.899999618530273,29368
2019-09-03,14.050000190734863,14.75,13.949999809265137,14.5,14.5,6134
2019-09-04,14.399999618530273,14.550000190734863,13.850000381469727,14.449999809265137,14.449999809265137,3258
2019-09-05,14.149999618530273,15.0,14.149999618530273,14.550000190734863,14.550000190734863,3768
2019-09-06,14.300000190734863,15.949999809265137,14.300000190734863,15.550000190734863,15.550000190734863,8806
2019-09-09,15.550000190734863,16.950000762939453,15.550000190734863,16.549999237060547,16.549999237060547,16756
2019-09-11,17.350000381469727,19.850000381469727,17.350000381469727,18.950000762939453,18.950000762939453,213199
2019-09-12,18.950000762939453,21.450000762939453,17.649999618530273,18.799999237060547,18.799999237060547,131213
2019-09-13,18.5,19.25,17.5,18.0,18.0,30442
2019-09-16,17.899999618530273,18.5,17.149999618530273,18.049999237060547,18.049999237060547,9513
2019-09-17,18.25,18.350000381469727,17.399999618530273,17.600000381469727,17.600000381469727,9983
2019-09-18,17.5,18.850000381469727,17.25,18.0,18.0,13417
2019-09-19,18.450000762939453,18.899999618530273,17.100000381469727,18.0,18.0,29932
2019-09-20,17.950000762939453,18.950000762939453,17.200000762939453,18.100000381469727,18.100000381469727,27634
2019-09-23,18.100000381469727,18.600000381469727,17.600000381469727,17.700000762939453,17.700000762939453,16775
2019-09-24,17.75,18.049999237060547,17.299999237060547,17.549999237060547,17.549999237060547,5927
2019-09-25,17.950000762939453,17.950000762939453,17.149999618530273,17.350000381469727,17.350000381469727,16192
2019-09-26,17.75,20.25,17.149999618530273,19.350000381469727,19.350000381469727,184115
2019-09-27,19.350000381469727,20.200000762939453,18.0,18.399999618530273,18.399999618530273,336663
2019-09-30,18.200000762939453,18.75,16.5,16.899999618530273,16.899999618530273,103438
2019-10-01,17.049999237060547,17.450000762939453,15.649999618530273,16.399999618530273,16.399999618530273,42984
2019-10-03,15.399999618530273,16.25,15.399999618530273,15.649999618530273,15.649999618530273,53604
2019-10-04,15.649999618530273,16.0,15.199999809265137,15.350000381469727,15.350000381469727,14129
2019-10-07,15.300000190734863,15.75,14.850000381469727,15.300000190734863,15.300000190734863,33072
2019-10-09,15.399999618530273,15.399999618530273,14.699999809265137,14.850000381469727,14.850000381469727,12530
2019-10-10,14.199999809265137,15.100000381469727,14.199999809265137,14.350000381469727,14.350000381469727,19742
2019-10-11,14.350000381469727,15.050000190734863,14.25,14.649999618530273,14.649999618530273,5587
2019-10-14,14.949999809265137,15.199999809265137,14.199999809265137,14.449999809265137,14.449999809265137,8241
2019-10-15,14.850000381469727,16.799999237060547,14.5,15.800000190734863,15.800000190734863,24916
2019-10-16,15.449999809265137,17.450000762939453,15.449999809265137,17.200000762939453,17.200000762939453,49055
2019-10-17,17.0,17.200000762939453,15.75,17.0,17.0,11615
2019-10-18,16.899999618530273,17.399999618530273,16.25,16.950000762939453,16.950000762939453,3958
2019-10-22,16.899999618530273,17.0,16.200000762939453,16.799999237060547,16.799999237060547,212836
2019-10-23,16.75,17.049999237060547,16.399999618530273,16.850000381469727,16.850000381469727,8983
2019-10-24,16.649999618530273,17.0,16.450000762939453,17.0,17.0,1676
2019-10-25,16.950000762939453,16.950000762939453,15.800000190734863,16.299999237060547,16.299999237060547,4102
2019-10-27,16.75,17.299999237060547,15.899999618530273,17.100000381469727,17.100000381469727,2829
2019-10-29,16.899999618530273,17.0,16.149999618530273,16.350000381469727,16.350000381469727,9891
2019-10-30,16.200000762939453,16.600000381469727,15.5,15.600000381469727,15.600000381469727,12215
2019-10-31,16.450000762939453,17.950000762939453,15.5,16.399999618530273,16.399999618530273,115137
2019-11-01,16.100000381469727,17.600000381469727,15.800000190734863,16.100000381469727,16.100000381469727,20003
2019-11-04,16.049999237060547,16.799999237060547,15.100000381469727,15.550000190734863,15.550000190734863,29286
2019-11-05,15.800000190734863,16.0,15.300000190734863,15.850000381469727,15.850000381469727,18126
2019-11-06,15.649999618530273,16.25,15.5,15.5,15.5,21258
2019-11-07,15.449999809265137,15.949999809265137,15.449999809265137,15.649999618530273,15.649999618530273,13884
2019-11-08,15.850000381469727,15.850000381469727,15.199999809265137,15.5,15.5,2864
2019-11-11,15.649999618530273,15.75,15.149999618530273,15.350000381469727,15.350000381469727,3997
2019-11-13,15.649999618530273,15.649999618530273,15.050000190734863,15.100000381469727,15.100000381469727,2326
2019-11-14,14.949999809265137,15.649999618530273,14.800000190734863,15.0,15.0,14781
2019-11-15,15.199999809265137,15.199999809265137,14.949999809265137,15.050000190734863,15.050000190734863,4286
2019-11-18,15.0,15.050000190734863,14.550000190734863,14.699999809265137,14.699999809265137,6621
2019-11-19,14.800000190734863,15.100000381469727,14.550000190734863,14.800000190734863,14.800000190734863,2131
2019-11-20,14.800000190734863,15.0,14.300000190734863,14.899999618530273,14.899999618530273,5895
2019-11-21,14.899999618530273,14.899999618530273,14.550000190734863,14.649999618530273,14.649999618530273,1634
2019-11-22,14.649999618530273,14.899999618530273,14.0,14.199999809265137,14.199999809265137,13705
2019-11-25,13.949999809265137,14.800000190734863,13.949999809265137,14.25,14.25,10349
2019-11-26,14.25,14.699999809265137,14.25,14.399999618530273,14.399999618530273,5554
2019-11-27,14.800000190734863,14.800000190734863,14.149999618530273,14.199999809265137,14.199999809265137,19786
2019-11-28,14.300000190734863,14.649999618530273,14.25,14.300000190734863,14.300000190734863,10689
2019-11-29,14.5,14.850000381469727,14.149999618530273,14.300000190734863,14.300000190734863,15579
2019-12-02,14.25,15.25,14.100000381469727,14.399999618530273,14.399999618530273,12357
2019-12-03,14.5,14.5,14.050000190734863,14.100000381469727,14.100000381469727,4456
2019-12-04,14.100000381469727,14.449999809265137,14.0,14.25,14.25,7613
2019-12-05,14.25,14.399999618530273,14.100000381469727,14.199999809265137,14.199999809265137,1818
2019-12-06,14.149999618530273,14.649999618530273,13.899999618530273,13.949999809265137,13.949999809265137,69570
2019-12-09,14.199999809265137,14.399999618530273,13.850000381469727,13.949999809265137,13.949999809265137,10732
2019-12-10,13.800000190734863,14.100000381469727,13.449999809265137,13.5,13.5,7500
2019-12-11,13.350000381469727,13.399999618530273,13.100000381469727,13.149999618530273,13.149999618530273,8211
2019-12-12,13.5,13.75,13.199999809265137,13.300000190734863,13.300000190734863,10442
2019-12-13,13.949999809265137,13.949999809265137,13.25,13.449999809265137,13.449999809265137,7767
2019-12-16,13.350000381469727,13.649999618530273,13.149999618530273,13.399999618530273,13.399999618530273,7799
2019-12-17,13.600000381469727,15.100000381469727,13.600000381469727,14.199999809265137,14.199999809265137,112607
2019-12-18,14.899999618530273,14.899999618530273,13.550000190734863,14.0,14.0,19737
2019-12-19,13.949999809265137,14.25,13.550000190734863,14.0,14.0,20296
2019-12-20,14.0,14.449999809265137,13.600000381469727,13.649999618530273,13.649999618530273,6852
2019-12-23,14.5,14.5,13.300000190734863,13.600000381469727,13.600000381469727,13977
2019-12-24,14.0,14.800000190734863,12.649999618530273,13.199999809265137,13.199999809265137,109536
2019-12-26,13.149999618530273,13.199999809265137,12.899999618530273,13.149999618530273,13.149999618530273,56528
2019-12-27,13.100000381469727,14.350000381469727,13.050000190734863,13.949999809265137,13.949999809265137,98371
2019-12-30,14.100000381469727,14.199999809265137,13.350000381469727,13.850000381469727,13.850000381469727,11641
