Date,Open,High,Low,Close,Adj Close,Volume
2014-01-01,6.699999809265137,8.100000381469727,6.699999809265137,8.050000190734863,8.050000190734863,135410
2014-01-02,8.350000381469727,8.649999618530273,7.0,7.099999904632568,7.099999904632568,94823
2014-01-03,7.099999904632568,7.449999809265137,6.849999904632568,7.050000190734863,7.050000190734863,23636
2014-01-06,7.0,8.0,7.0,7.900000095367432,7.900000095367432,99080
2014-01-07,8.0,8.100000381469727,7.5,7.650000095367432,7.650000095367432,78382
2014-01-08,8.199999809265137,8.5,7.699999809265137,8.0,8.0,804732
2014-01-09,8.199999809265137,8.75,8.0,8.050000190734863,8.050000190734863,370620
2014-01-10,8.0,9.649999618530273,8.0,9.649999618530273,9.649999618530273,749508
2014-01-13,9.800000190734863,10.600000381469727,9.800000190734863,10.600000381469727,10.600000381469727,230959
2014-01-14,11.350000381469727,11.649999618530273,10.600000381469727,11.649999618530273,11.649999618530273,1199195
2014-01-15,12.0,12.649999618530273,10.75,11.199999809265137,11.199999809265137,356408
2014-01-16,10.699999809265137,11.5,10.199999809265137,10.949999809265137,10.949999809265137,168039
2014-01-17,10.75,10.949999809265137,10.449999809265137,10.600000381469727,10.600000381469727,29324
2014-01-20,10.550000190734863,10.600000381469727,10.100000381469727,10.100000381469727,10.100000381469727,19239
2014-01-21,9.649999618530273,9.699999809265137,9.600000381469727,9.600000381469727,9.600000381469727,86044
2014-01-22,9.199999809265137,9.399999618530273,9.149999618530273,9.300000190734863,9.300000190734863,59603
2014-01-23,9.149999618530273,9.75,9.149999618530273,9.75,9.75,11904
2014-01-24,10.149999618530273,10.199999809265137,9.5,9.850000381469727,9.850000381469727,36206
2014-01-27,9.600000381469727,9.800000190734863,9.399999618530273,9.399999618530273,9.399999618530273,11234
2014-01-28,9.5,9.5,9.050000190734863,9.100000381469727,9.100000381469727,4711
2014-01-29,9.550000190734863,9.550000190734863,8.800000190734863,8.899999618530273,8.899999618530273,14110
2014-01-30,8.600000381469727,9.149999618530273,8.600000381469727,8.800000190734863,8.800000190734863,5462
2014-01-31,8.649999618530273,8.949999809265137,8.649999618530273,8.75,8.75,2055
2014-02-03,8.699999809265137,8.75,8.350000381469727,8.399999618530273,8.399999618530273,1220
2014-02-04,8.350000381469727,8.800000190734863,8.149999618530273,8.600000381469727,8.600000381469727,8865
2014-02-05,8.800000190734863,9.0,8.550000190734863,9.0,9.0,7398
2014-02-06,9.100000381469727,9.399999618530273,8.800000190734863,9.149999618530273,9.149999618530273,7293
2014-02-07,9.100000381469727,9.5,9.0,9.0,9.0,3529
2014-02-10,9.149999618530273,9.449999809265137,9.100000381469727,9.399999618530273,9.399999618530273,1769
2014-02-11,9.25,9.449999809265137,9.199999809265137,9.300000190734863,9.300000190734863,7750
2014-02-12,9.149999618530273,9.149999618530273,8.850000381469727,9.0,9.0,26233
2014-02-13,9.0,9.0,8.550000190734863,8.550000190734863,8.550000190734863,13093
2014-02-14,8.199999809265137,8.300000190734863,8.149999618530273,8.25,8.25,13646
2014-02-17,8.100000381469727,8.5,8.0,8.25,8.25,1362
2014-02-18,8.600000381469727,8.600000381469727,8.25,8.25,8.25,968
2014-02-19,8.25,8.25,8.100000381469727,8.100000381469727,8.100000381469727,7453
2014-02-20,8.5,8.5,8.25,8.399999618530273,8.399999618530273,6745
2014-02-21,8.0,8.399999618530273,8.0,8.399999618530273,8.399999618530273,7257
2014-02-24,8.100000381469727,8.449999809265137,8.0,8.149999618530273,8.149999618530273,10815
2014-02-25,8.25,8.399999618530273,8.100000381469727,8.25,8.25,3938
2014-02-26,8.550000190734863,8.550000190734863,8.050000190734863,8.050000190734863,8.050000190734863,2951
2014-02-28,8.050000190734863,8.100000381469727,8.0,8.0,8.0,2445
2014-03-03,8.0,8.399999618530273,7.900000095367432,8.350000381469727,8.350000381469727,11673
2014-03-04,8.050000190734863,8.25,8.050000190734863,8.25,8.25,12271
2014-03-05,8.100000381469727,8.5,8.050000190734863,8.25,8.25,10167
2014-03-06,8.149999618530273,8.649999618530273,8.100000381469727,8.600000381469727,8.600000381469727,24094
2014-03-07,8.600000381469727,8.899999618530273,8.399999618530273,8.600000381469727,8.600000381469727,21202
2014-03-10,8.25,8.850000381469727,7.900000095367432,8.0,8.0,50303
2014-03-11,7.800000190734863,7.949999809265137,7.5,7.650000095367432,7.650000095367432,53874
2014-03-12,7.449999809265137,7.550000190734863,6.949999809265137,7.199999809265137,7.199999809265137,85046
2014-03-13,7.25,7.449999809265137,7.0,7.150000095367432,7.150000095367432,47063
2014-03-14,7.150000095367432,7.449999809265137,6.849999904632568,6.949999809265137,6.949999809265137,21002
2014-03-18,7.0,7.099999904632568,6.699999809265137,6.849999904632568,6.849999904632568,16477
2014-03-19,7.150000095367432,7.5,6.699999809265137,7.0,7.0,23441
2014-03-20,7.0,7.050000190734863,6.800000190734863,6.949999809265137,6.949999809265137,14579
2014-03-21,7.099999904632568,7.099999904632568,6.900000095367432,6.949999809265137,6.949999809265137,5004
2014-03-24,6.400000095367432,7.400000095367432,6.400000095367432,7.199999809265137,7.199999809265137,49009
2014-03-25,6.849999904632568,7.400000095367432,6.849999904632568,7.0,7.0,22208
2014-03-26,7.0,7.199999809265137,6.949999809265137,7.0,7.0,29084
2014-03-27,7.199999809265137,7.199999809265137,6.849999904632568,7.0,7.0,15307
2014-03-28,6.800000190734863,7.099999904632568,6.75,6.849999904632568,6.849999904632568,30582
2014-03-31,6.800000190734863,7.0,6.75,6.800000190734863,6.800000190734863,61063
2014-04-01,7.300000190734863,7.300000190734863,6.849999904632568,7.099999904632568,7.099999904632568,15705
2014-04-02,6.800000190734863,7.400000095367432,6.800000190734863,7.300000190734863,7.300000190734863,82559
2014-04-03,7.599999904632568,7.599999904632568,7.150000095367432,7.300000190734863,7.300000190734863,30385
2014-04-04,7.050000190734863,7.349999904632568,7.050000190734863,7.349999904632568,7.349999904632568,4658
2014-04-07,7.349999904632568,7.400000095367432,7.150000095367432,7.349999904632568,7.349999904632568,18742
2014-04-09,7.699999809265137,7.849999904632568,7.199999809265137,7.75,7.75,85134
2014-04-10,7.900000095367432,7.949999809265137,7.300000190734863,7.349999904632568,7.349999904632568,51074
2014-04-11,7.699999809265137,7.949999809265137,7.349999904632568,7.900000095367432,7.900000095367432,26268
2014-04-15,8.0,8.449999809265137,7.550000190734863,8.149999618530273,8.149999618530273,35389
2014-04-16,7.900000095367432,8.100000381469727,7.800000190734863,7.900000095367432,7.900000095367432,8990
2014-04-17,8.0,8.25,8.0,8.100000381469727,8.100000381469727,14291
2014-04-21,8.0,8.25,8.0,8.100000381469727,8.100000381469727,14889
2014-04-22,8.100000381469727,8.399999618530273,8.050000190734863,8.050000190734863,8.050000190734863,34812
2014-04-23,8.25,8.300000190734863,8.149999618530273,8.25,8.25,30766
2014-04-24,8.25,8.25,8.25,8.25,8.25,0
2014-04-25,8.149999618530273,8.149999618530273,7.75,7.900000095367432,7.900000095367432,33578
2014-04-28,7.900000095367432,8.100000381469727,7.650000095367432,7.800000190734863,7.800000190734863,18486
2014-04-29,7.900000095367432,8.0,7.699999809265137,7.900000095367432,7.900000095367432,40220
2014-04-30,7.800000190734863,8.149999618530273,7.699999809265137,7.800000190734863,7.800000190734863,19968
2014-05-02,7.75,7.75,7.599999904632568,7.650000095367432,7.650000095367432,5525
2014-05-05,7.5,7.900000095367432,7.449999809265137,7.5,7.5,11409
2014-05-06,7.349999904632568,7.400000095367432,7.099999904632568,7.150000095367432,7.150000095367432,53633
2014-05-07,7.199999809265137,7.199999809265137,7.0,7.050000190734863,7.050000190734863,8191
2014-05-08,7.050000190734863,7.25,7.0,7.150000095367432,7.150000095367432,7401
2014-05-09,6.900000095367432,7.349999904632568,6.900000095367432,7.099999904632568,7.099999904632568,52117
2014-05-12,7.150000095367432,7.349999904632568,7.050000190734863,7.050000190734863,7.050000190734863,9963
2014-05-13,7.150000095367432,7.800000190734863,7.150000095367432,7.400000095367432,7.400000095367432,27397
2014-05-14,7.400000095367432,7.650000095367432,7.199999809265137,7.550000190734863,7.550000190734863,39228
2014-05-15,7.599999904632568,8.350000381469727,7.550000190734863,7.800000190734863,7.800000190734863,42855
2014-05-16,7.550000190734863,7.849999904632568,7.050000190734863,7.199999809265137,7.199999809265137,46915
2014-05-19,7.25,8.5,7.25,8.350000381469727,8.350000381469727,50719
2014-05-20,9.899999618530273,9.899999618530273,8.399999618530273,9.199999809265137,9.199999809265137,182069
2014-05-21,9.399999618530273,9.699999809265137,9.199999809265137,9.449999809265137,9.449999809265137,97316
2014-05-22,9.899999618530273,10.699999809265137,9.350000381469727,10.25,10.25,217969
2014-05-23,10.399999618530273,10.649999618530273,9.5,9.600000381469727,9.600000381469727,77604
2014-05-26,10.0,10.199999809265137,8.5,8.850000381469727,8.850000381469727,93199
2014-05-27,8.850000381469727,9.050000190734863,7.900000095367432,8.300000190734863,8.300000190734863,24854
2014-05-28,8.25,9.949999809265137,8.199999809265137,9.949999809265137,9.949999809265137,726999
2014-05-29,10.399999618530273,10.399999618530273,9.199999809265137,9.550000190734863,9.550000190734863,119972
2014-05-30,9.600000381469727,10.350000381469727,9.050000190734863,9.25,9.25,119602
2014-06-02,9.0,9.699999809265137,9.0,9.399999618530273,9.399999618530273,27910
2014-06-03,9.100000381469727,10.0,9.100000381469727,9.75,9.75,50548
2014-06-04,10.0,10.0,9.600000381469727,9.75,9.75,109489
2014-06-05,9.100000381469727,10.25,9.100000381469727,9.850000381469727,9.850000381469727,234919
2014-06-06,9.800000190734863,9.800000190734863,9.399999618530273,9.399999618530273,9.399999618530273,74998
2014-06-09,9.449999809265137,9.550000190734863,9.0,9.399999618530273,9.399999618530273,192750
2014-06-10,9.649999618530273,9.649999618530273,9.0,9.149999618530273,9.149999618530273,34717
2014-06-11,9.100000381469727,9.600000381469727,9.0,9.25,9.25,140671
2014-06-12,9.300000190734863,9.699999809265137,9.199999809265137,9.699999809265137,9.699999809265137,167229
2014-06-13,9.850000381469727,10.100000381469727,9.25,9.25,9.25,74895
2014-06-16,9.199999809265137,9.399999618530273,8.800000190734863,9.350000381469727,9.350000381469727,16592
2014-06-17,9.449999809265137,9.449999809265137,9.100000381469727,9.399999618530273,9.399999618530273,21956
2014-06-18,9.0,9.350000381469727,8.949999809265137,9.0,9.0,24031
2014-06-19,8.75,9.199999809265137,8.699999809265137,9.100000381469727,9.100000381469727,17931
2014-06-20,9.0,9.399999618530273,8.699999809265137,8.699999809265137,8.699999809265137,25228
2014-06-23,8.800000190734863,9.050000190734863,8.600000381469727,8.800000190734863,8.800000190734863,14307
2014-06-24,9.0,9.199999809265137,8.5,8.850000381469727,8.850000381469727,42582
2014-06-25,8.800000190734863,9.0,8.550000190734863,8.600000381469727,8.600000381469727,17130
2014-06-26,8.449999809265137,9.0,8.449999809265137,8.550000190734863,8.550000190734863,55403
2014-06-27,8.649999618530273,8.949999809265137,8.5,8.899999618530273,8.899999618530273,44764
2014-06-30,9.300000190734863,9.300000190734863,8.5,8.5,8.5,130560
2014-07-01,8.699999809265137,8.75,8.399999618530273,8.449999809265137,8.449999809265137,59054
2014-07-02,8.699999809265137,8.75,8.050000190734863,8.100000381469727,8.100000381469727,261406
2014-07-03,8.100000381469727,8.25,7.800000190734863,8.0,8.0,56664
2014-07-04,8.100000381469727,8.100000381469727,7.800000190734863,8.0,8.0,41975
2014-07-07,7.800000190734863,8.149999618530273,7.800000190734863,7.949999809265137,7.949999809265137,36338
2014-07-08,7.849999904632568,7.900000095367432,7.599999904632568,7.599999904632568,7.599999904632568,56989
2014-07-09,7.400000095367432,7.5,7.25,7.349999904632568,7.349999904632568,47492
2014-07-10,7.050000190734863,7.699999809265137,7.0,7.550000190734863,7.550000190734863,33446
2014-07-11,7.400000095367432,7.800000190734863,7.199999809265137,7.449999809265137,7.449999809265137,22541
2014-07-14,7.75,7.75,7.150000095367432,7.199999809265137,7.199999809265137,8509
2014-07-15,7.449999809265137,7.449999809265137,7.099999904632568,7.400000095367432,7.400000095367432,7981
2014-07-16,7.300000190734863,7.599999904632568,7.199999809265137,7.5,7.5,9010
2014-07-17,7.550000190734863,7.800000190734863,7.300000190734863,7.599999904632568,7.599999904632568,27762
2014-07-18,7.800000190734863,7.800000190734863,7.5,7.699999809265137,7.699999809265137,5499
2014-07-21,7.5,7.800000190734863,7.5,7.599999904632568,7.599999904632568,4265
2014-07-22,7.800000190734863,7.900000095367432,7.599999904632568,7.800000190734863,7.800000190734863,8581
2014-07-23,7.699999809265137,7.900000095367432,7.599999904632568,7.800000190734863,7.800000190734863,3583
2014-07-24,7.949999809265137,8.050000190734863,7.449999809265137,7.949999809265137,7.949999809265137,22134
2014-07-25,8.0,8.050000190734863,7.650000095367432,7.699999809265137,7.699999809265137,21716
2014-07-28,7.5,7.699999809265137,7.349999904632568,7.400000095367432,7.400000095367432,18825
2014-07-30,7.5,7.699999809265137,7.199999809265137,7.25,7.25,19647
2014-07-31,7.300000190734863,7.349999904632568,7.150000095367432,7.25,7.25,26657
2014-08-01,7.099999904632568,7.449999809265137,7.099999904632568,7.349999904632568,7.349999904632568,7588
2014-08-04,7.25,7.75,7.25,7.75,7.75,9203
2014-08-05,7.400000095367432,7.75,7.400000095367432,7.699999809265137,7.699999809265137,12458
2014-08-06,7.300000190734863,7.800000190734863,7.300000190734863,7.599999904632568,7.599999904632568,16044
2014-08-07,7.699999809265137,7.75,7.5,7.550000190734863,7.550000190734863,19216
2014-08-08,7.900000095367432,7.900000095367432,7.199999809265137,7.300000190734863,7.300000190734863,3150
2014-08-11,7.150000095367432,7.550000190734863,7.150000095367432,7.199999809265137,7.199999809265137,4807
2014-08-12,7.0,7.599999904632568,7.0,7.550000190734863,7.550000190734863,8201
2014-08-13,7.449999809265137,7.449999809265137,6.900000095367432,7.0,7.0,59916
2014-08-14,7.0,7.099999904632568,6.75,7.099999904632568,7.099999904632568,6106
2014-08-18,7.0,7.0,6.800000190734863,6.800000190734863,6.800000190734863,30718
2014-08-19,7.0,7.199999809265137,6.900000095367432,7.0,7.0,26919
2014-08-20,6.949999809265137,7.599999904632568,6.900000095367432,7.150000095367432,7.150000095367432,18584
2014-08-21,7.050000190734863,7.349999904632568,7.050000190734863,7.150000095367432,7.150000095367432,10927
2014-08-22,7.5,7.5,7.050000190734863,7.449999809265137,7.449999809265137,15415
2014-08-25,6.900000095367432,7.449999809265137,6.900000095367432,7.0,7.0,14531
2014-08-26,7.0,7.0,6.849999904632568,6.900000095367432,6.900000095367432,3527
2014-08-27,6.900000095367432,7.0,6.800000190734863,6.949999809265137,6.949999809265137,14021
2014-08-28,7.0,7.099999904632568,6.800000190734863,6.900000095367432,6.900000095367432,7359
2014-09-01,6.550000190734863,7.199999809265137,6.550000190734863,6.900000095367432,6.900000095367432,4657
2014-09-02,6.849999904632568,7.550000190734863,6.849999904632568,7.25,7.25,26486
2014-09-03,7.0,7.400000095367432,7.0,7.300000190734863,7.300000190734863,6300
2014-09-04,7.050000190734863,7.199999809265137,7.050000190734863,7.150000095367432,7.150000095367432,6957
2014-09-05,7.75,7.75,7.050000190734863,7.300000190734863,7.300000190734863,52902
2014-09-08,7.199999809265137,7.849999904632568,7.199999809265137,7.650000095367432,7.650000095367432,37870
2014-09-09,7.400000095367432,8.899999618530273,7.400000095367432,8.300000190734863,8.300000190734863,192577
2014-09-10,7.900000095367432,9.399999618530273,7.900000095367432,8.5,8.5,240373
2014-09-11,8.25,10.199999809265137,8.149999618530273,10.199999809265137,10.199999809265137,767346
2014-09-12,10.399999618530273,10.699999809265137,9.25,10.5,10.5,357997
2014-09-15,10.550000190734863,10.800000190734863,9.899999618530273,10.149999618530273,10.149999618530273,133359
2014-09-16,10.149999618530273,10.149999618530273,9.149999618530273,9.149999618530273,9.149999618530273,77999
2014-09-17,8.75,9.300000190734863,8.75,8.800000190734863,8.800000190734863,55459
2014-09-18,8.850000381469727,9.399999618530273,8.800000190734863,9.100000381469727,9.100000381469727,37087
2014-09-19,9.199999809265137,9.25,8.600000381469727,8.75,8.75,27759
2014-09-22,8.300000190734863,8.699999809265137,8.300000190734863,8.600000381469727,8.600000381469727,32073
2014-09-23,8.800000190734863,8.800000190734863,8.25,8.300000190734863,8.300000190734863,24918
2014-09-24,8.449999809265137,8.449999809265137,7.900000095367432,8.0,8.0,40196
2014-09-25,8.0,8.399999618530273,7.599999904632568,7.75,7.75,33351
2014-09-26,7.699999809265137,7.949999809265137,7.449999809265137,7.75,7.75,17463
2014-09-29,7.75,8.350000381469727,7.599999904632568,8.149999618530273,8.149999618530273,27454
2014-09-30,8.350000381469727,8.600000381469727,7.599999904632568,7.75,7.75,28203
2014-10-01,7.949999809265137,7.949999809265137,7.650000095367432,7.75,7.75,7147
2014-10-07,8.0,8.0,7.5,7.650000095367432,7.650000095367432,6885
2014-10-08,7.699999809265137,7.949999809265137,7.650000095367432,7.699999809265137,7.699999809265137,7893
2014-10-09,7.599999904632568,8.0,7.599999904632568,7.800000190734863,7.800000190734863,16987
2014-10-10,7.699999809265137,7.849999904632568,7.699999809265137,7.75,7.75,7451
2014-10-13,8.0,8.199999809265137,7.5,7.900000095367432,7.900000095367432,21731
2014-10-14,7.949999809265137,8.300000190734863,7.699999809265137,7.900000095367432,7.900000095367432,12322
2014-10-15,7.900000095367432,7.900000095367432,7.900000095367432,7.900000095367432,7.900000095367432,0
2014-10-16,7.849999904632568,8.050000190734863,7.599999904632568,7.75,7.75,21624
2014-10-17,8.0,8.0,7.199999809265137,7.5,7.5,128112
2014-10-20,7.75,7.849999904632568,7.400000095367432,7.5,7.5,14992
2014-10-21,7.699999809265137,7.699999809265137,7.400000095367432,7.449999809265137,7.449999809265137,8727
2014-10-22,7.599999904632568,7.599999904632568,7.400000095367432,7.449999809265137,7.449999809265137,28565
2014-10-27,7.949999809265137,7.949999809265137,7.400000095367432,7.5,7.5,26185
2014-10-28,7.599999904632568,7.800000190734863,7.5,7.550000190734863,7.550000190734863,6073
2014-10-29,7.449999809265137,7.75,7.449999809265137,7.5,7.5,14279
2014-10-30,7.5,7.599999904632568,7.449999809265137,7.5,7.5,12407
2014-10-31,7.849999904632568,7.900000095367432,7.400000095367432,7.599999904632568,7.599999904632568,28512
2014-11-03,7.400000095367432,8.050000190734863,7.400000095367432,7.849999904632568,7.849999904632568,38865
2014-11-05,7.800000190734863,8.149999618530273,7.699999809265137,7.849999904632568,7.849999904632568,45540
2014-11-07,7.650000095367432,7.849999904632568,7.449999809265137,7.650000095367432,7.650000095367432,22269
2014-11-10,7.849999904632568,7.849999904632568,7.349999904632568,7.400000095367432,7.400000095367432,35807
2014-11-11,7.5,8.050000190734863,7.400000095367432,7.849999904632568,7.849999904632568,36473
2014-11-12,7.949999809265137,7.949999809265137,7.650000095367432,7.800000190734863,7.800000190734863,15440
2014-11-13,7.949999809265137,7.949999809265137,7.449999809265137,7.550000190734863,7.550000190734863,22554
2014-11-14,7.75,8.199999809265137,7.5,8.050000190734863,8.050000190734863,124408
2014-11-17,8.100000381469727,8.199999809265137,7.599999904632568,8.0,8.0,38997
2014-11-18,8.149999618530273,8.199999809265137,7.800000190734863,8.050000190734863,8.050000190734863,18581
2014-11-19,8.100000381469727,9.649999618530273,7.75,9.350000381469727,9.350000381469727,423030
2014-11-20,9.800000190734863,10.0,8.25,8.600000381469727,8.600000381469727,199435
2014-11-21,8.5,8.800000190734863,8.350000381469727,8.649999618530273,8.649999618530273,36699
2014-11-24,9.0,9.0,8.0,8.100000381469727,8.100000381469727,25062
2014-11-25,8.0,8.0,7.599999904632568,7.800000190734863,7.800000190734863,45471
2014-11-26,7.699999809265137,8.25,7.5,7.75,7.75,32690
2014-11-27,7.699999809265137,8.050000190734863,7.599999904632568,7.75,7.75,23770
2014-11-28,7.75,7.949999809265137,7.599999904632568,7.650000095367432,7.650000095367432,29939
2014-12-01,7.699999809265137,7.699999809265137,7.099999904632568,7.150000095367432,7.150000095367432,58575
2014-12-02,7.25,7.300000190734863,7.099999904632568,7.300000190734863,7.300000190734863,38201
2014-12-03,7.199999809265137,8.399999618530273,7.199999809265137,8.100000381469727,8.100000381469727,86951
2014-12-04,8.350000381469727,8.350000381469727,7.599999904632568,7.849999904632568,7.849999904632568,22350
2014-12-05,7.800000190734863,8.300000190734863,7.75,7.800000190734863,7.800000190734863,40448
2014-12-08,7.800000190734863,8.050000190734863,7.599999904632568,7.75,7.75,22602
2014-12-09,8.100000381469727,8.100000381469727,7.300000190734863,7.550000190734863,7.550000190734863,39084
2014-12-10,7.550000190734863,7.599999904632568,7.400000095367432,7.5,7.5,11861
2014-12-11,7.75,7.75,7.400000095367432,7.5,7.5,64289
2014-12-12,7.5,8.350000381469727,7.5,7.550000190734863,7.550000190734863,80157
2014-12-15,7.599999904632568,7.650000095367432,7.400000095367432,7.400000095367432,7.400000095367432,7979
2014-12-16,7.449999809265137,7.75,6.849999904632568,7.0,7.0,65728
2014-12-17,7.300000190734863,7.5,6.650000095367432,6.949999809265137,6.949999809265137,33078
2014-12-18,7.050000190734863,7.400000095367432,7.050000190734863,7.25,7.25,16046
2014-12-19,7.5,7.5,7.199999809265137,7.199999809265137,7.199999809265137,7229
2014-12-22,7.150000095367432,7.25,7.099999904632568,7.099999904632568,7.099999904632568,12078
2014-12-23,7.25,7.400000095367432,7.150000095367432,7.150000095367432,7.150000095367432,35186
2014-12-24,7.400000095367432,7.849999904632568,7.300000190734863,7.599999904632568,7.599999904632568,34990
2014-12-26,7.400000095367432,7.800000190734863,7.349999904632568,7.5,7.5,11621
2014-12-29,7.449999809265137,7.75,7.400000095367432,7.400000095367432,7.400000095367432,24142
2014-12-30,7.400000095367432,7.5,7.349999904632568,7.349999904632568,7.349999904632568,6192
