Date,Open,High,Low,Close,Adj Close,Volume
2004-01-01,12.0,12.75,12.0,12.25,12.25,947884
2004-01-02,12.699999809265137,12.699999809265137,12.25,12.449999809265137,12.449999809265137,700006
2004-01-05,12.100000381469727,12.899999618530273,12.0,12.199999809265137,12.199999809265137,639890
2004-01-06,12.699999809265137,12.899999618530273,12.0,12.100000381469727,12.100000381469727,692255
2004-01-07,12.0,13.350000381469727,11.899999618530273,13.050000190734863,13.050000190734863,1466637
2004-01-08,13.800000190734863,14.399999618530273,13.600000381469727,14.100000381469727,14.100000381469727,2401134
2004-01-09,14.0,14.600000381469727,13.399999618530273,13.600000381469727,13.600000381469727,1142295
2004-01-12,13.899999618530273,14.0,13.0,13.100000381469727,13.100000381469727,932015
2004-01-13,13.0,13.350000381469727,12.649999618530273,13.100000381469727,13.100000381469727,649471
2004-01-14,13.350000381469727,13.399999618530273,12.899999618530273,13.0,13.0,377110
2004-01-15,13.350000381469727,13.399999618530273,12.800000190734863,12.949999809265137,12.949999809265137,335949
2004-01-16,12.649999618530273,13.050000190734863,12.449999809265137,12.5,12.5,429746
2004-01-19,12.050000190734863,12.399999618530273,11.350000381469727,11.949999809265137,11.949999809265137,341319
2004-01-20,12.100000381469727,12.449999809265137,11.649999618530273,11.800000190734863,11.800000190734863,231578
2004-01-21,11.699999809265137,11.800000190734863,10.649999618530273,10.649999618530273,10.649999618530273,353529
2004-01-22,10.649999618530273,10.699999809265137,10.0,10.100000381469727,10.100000381469727,338204
2004-01-23,10.25,11.149999618530273,10.199999809265137,11.050000190734863,11.050000190734863,266454
2004-01-26,11.050000190734863,11.050000190734863,11.050000190734863,11.050000190734863,11.050000190734863,0
2004-01-27,11.949999809265137,11.949999809265137,10.800000190734863,11.550000190734863,11.550000190734863,169432
2004-01-28,11.050000190734863,11.5,10.800000190734863,10.949999809265137,10.949999809265137,162414
2004-01-29,10.649999618530273,11.199999809265137,10.600000381469727,10.949999809265137,10.949999809265137,132431
2004-01-30,10.800000190734863,10.949999809265137,10.449999809265137,10.550000190734863,10.550000190734863,153857
2004-02-02,10.550000190734863,10.550000190734863,10.550000190734863,10.550000190734863,10.550000190734863,0
2004-02-03,10.199999809265137,10.449999809265137,9.649999618530273,9.800000190734863,9.800000190734863,257846
2004-02-04,9.399999618530273,10.199999809265137,9.399999618530273,9.850000381469727,9.850000381469727,193882
2004-02-05,10.050000190734863,10.149999618530273,9.5,9.600000381469727,9.600000381469727,173179
2004-02-06,9.0,9.899999618530273,9.0,9.600000381469727,9.600000381469727,165885
2004-02-09,9.550000190734863,10.0,9.550000190734863,9.899999618530273,9.899999618530273,131682
2004-02-10,9.699999809265137,10.149999618530273,9.699999809265137,9.899999618530273,9.899999618530273,129953
2004-02-11,9.75,10.0,9.600000381469727,9.699999809265137,9.699999809265137,100281
2004-02-12,9.75,9.850000381469727,9.5,9.550000190734863,9.550000190734863,79916
2004-02-13,9.399999618530273,9.800000190734863,9.25,9.649999618530273,9.649999618530273,91101
2004-02-16,9.800000190734863,10.149999618530273,9.5,9.899999618530273,9.899999618530273,171606
2004-02-17,10.0,10.0,9.600000381469727,9.699999809265137,9.699999809265137,81870
2004-02-18,9.699999809265137,10.5,9.5,9.899999618530273,9.899999618530273,354157
2004-02-19,10.199999809265137,10.600000381469727,9.5,9.800000190734863,9.800000190734863,344392
2004-02-20,9.600000381469727,9.949999809265137,9.600000381469727,9.75,9.75,126079
2004-02-23,9.5,9.800000190734863,9.25,9.300000190734863,9.300000190734863,135406
2004-02-24,9.149999618530273,9.399999618530273,9.100000381469727,9.25,9.25,142792
2004-02-25,9.149999618530273,9.350000381469727,8.850000381469727,8.850000381469727,8.850000381469727,148961
2004-02-26,9.0,9.199999809265137,8.949999809265137,9.050000190734863,9.050000190734863,126072
2004-02-27,9.100000381469727,9.25,9.0,9.100000381469727,9.100000381469727,107814
2004-03-01,9.300000190734863,9.5,9.100000381469727,9.350000381469727,9.350000381469727,107638
2004-03-02,9.350000381469727,9.350000381469727,9.350000381469727,9.350000381469727,9.350000381469727,0
2004-03-03,9.25,9.5,9.100000381469727,9.100000381469727,9.100000381469727,102231
2004-03-04,9.199999809265137,9.350000381469727,8.949999809265137,8.949999809265137,8.949999809265137,139006
2004-03-05,9.25,9.300000190734863,8.75,8.949999809265137,8.949999809265137,140487
2004-03-08,8.899999618530273,9.0,8.75,8.899999618530273,8.899999618530273,114006
2004-03-09,8.600000381469727,8.949999809265137,8.600000381469727,8.850000381469727,8.850000381469727,117144
2004-03-10,8.649999618530273,8.949999809265137,8.649999618530273,8.75,8.75,79048
2004-03-11,8.600000381469727,8.699999809265137,8.399999618530273,8.600000381469727,8.600000381469727,148020
2004-03-12,8.399999618530273,8.75,8.350000381469727,8.600000381469727,8.600000381469727,84490
2004-03-15,8.5,8.75,8.399999618530273,8.449999809265137,8.449999809265137,154152
2004-03-16,8.25,8.399999618530273,8.050000190734863,8.100000381469727,8.100000381469727,118810
2004-03-17,7.849999904632568,8.399999618530273,7.849999904632568,8.350000381469727,8.350000381469727,127732
2004-03-18,8.600000381469727,8.600000381469727,8.149999618530273,8.199999809265137,8.199999809265137,91303
2004-03-19,8.0,8.300000190734863,8.0,8.050000190734863,8.050000190734863,69733
2004-03-22,7.949999809265137,8.0,7.599999904632568,7.650000095367432,7.650000095367432,133273
2004-03-23,6.349999904632568,7.599999904632568,6.349999904632568,7.199999809265137,7.199999809265137,105333
2004-03-24,6.050000190734863,7.199999809265137,6.050000190734863,7.0,7.0,158321
2004-03-25,6.800000190734863,7.5,6.800000190734863,7.400000095367432,7.400000095367432,121980
2004-03-26,7.449999809265137,7.550000190734863,7.099999904632568,7.400000095367432,7.400000095367432,158616
2004-03-29,7.550000190734863,8.600000381469727,7.550000190734863,8.25,8.25,138272
2004-03-30,8.649999618530273,8.649999618530273,8.0,8.149999618530273,8.149999618530273,86685
2004-03-31,8.399999618530273,8.800000190734863,8.050000190734863,8.699999809265137,8.699999809265137,107969
2004-04-01,9.0,9.5,8.100000381469727,9.050000190734863,9.050000190734863,130918
2004-04-02,9.399999618530273,9.5,9.050000190734863,9.149999618530273,9.149999618530273,104215
2004-04-05,9.600000381469727,9.600000381469727,9.100000381469727,9.199999809265137,9.199999809265137,90696
2004-04-06,9.350000381469727,9.350000381469727,8.5,8.850000381469727,8.850000381469727,92855
2004-04-07,8.800000190734863,9.0,8.600000381469727,8.699999809265137,8.699999809265137,49746
2004-04-08,8.75,9.149999618530273,8.600000381469727,9.050000190734863,9.050000190734863,82205
2004-04-09,9.050000190734863,9.050000190734863,9.050000190734863,9.050000190734863,9.050000190734863,0
2004-04-12,9.100000381469727,9.100000381469727,8.199999809265137,8.550000190734863,8.550000190734863,189152
2004-04-13,8.550000190734863,8.699999809265137,8.300000190734863,8.5,8.5,71279
2004-04-14,8.5,8.5,8.5,8.5,8.5,0
2004-04-15,8.399999618530273,9.050000190734863,8.399999618530273,8.800000190734863,8.800000190734863,92027
2004-04-16,8.649999618530273,9.100000381469727,8.5,8.800000190734863,8.800000190734863,71722
2004-04-19,9.199999809265137,9.5,8.800000190734863,8.850000381469727,8.850000381469727,152489
2004-04-20,8.75,9.0,8.75,8.949999809265137,8.949999809265137,83533
2004-04-21,8.800000190734863,9.199999809265137,8.800000190734863,9.050000190734863,9.050000190734863,164877
2004-04-22,9.399999618530273,9.399999618530273,8.600000381469727,9.199999809265137,9.199999809265137,95458
2004-04-23,9.350000381469727,9.350000381469727,8.949999809265137,9.100000381469727,9.100000381469727,98910
2004-04-26,9.100000381469727,9.100000381469727,9.100000381469727,9.100000381469727,9.100000381469727,0
2004-04-27,9.350000381469727,9.350000381469727,8.5,8.550000190734863,8.550000190734863,172537
2004-04-28,8.350000381469727,8.899999618530273,8.350000381469727,8.75,8.75,106762
2004-04-29,8.649999618530273,8.949999809265137,8.550000190734863,8.800000190734863,8.800000190734863,68422
2004-04-30,8.850000381469727,8.899999618530273,8.699999809265137,8.800000190734863,8.800000190734863,52375
2004-05-03,8.600000381469727,9.050000190734863,8.600000381469727,8.699999809265137,8.699999809265137,77954
2004-05-04,8.75,9.100000381469727,8.75,9.0,9.0,108923
2004-05-05,9.100000381469727,9.800000190734863,8.850000381469727,9.300000190734863,9.300000190734863,215791
2004-05-06,9.600000381469727,11.199999809265137,9.399999618530273,11.199999809265137,11.199999809265137,1163586
2004-05-07,12.399999618530273,12.399999618530273,10.699999809265137,11.100000381469727,11.100000381469727,1623559
2004-05-10,10.899999618530273,12.75,10.550000190734863,12.399999618530273,12.399999618530273,1798996
2004-05-11,11.5,12.199999809265137,11.199999809265137,11.300000190734863,11.300000190734863,732311
2004-05-12,11.25,11.899999618530273,11.25,11.399999618530273,11.399999618530273,449515
2004-05-13,10.149999618530273,12.199999809265137,10.149999618530273,11.550000190734863,11.550000190734863,582974
2004-05-14,12.0,12.0,10.100000381469727,10.399999618530273,10.399999618530273,590896
2004-05-17,10.0,10.0,8.399999618530273,8.800000190734863,8.800000190734863,395651
2004-05-18,9.600000381469727,9.75,8.600000381469727,9.550000190734863,9.550000190734863,469157
2004-05-19,10.399999618530273,10.850000381469727,9.899999618530273,10.600000381469727,10.600000381469727,603598
2004-05-20,11.0,11.449999809265137,10.649999618530273,10.800000190734863,10.800000190734863,472681
2004-05-21,10.5,10.600000381469727,10.199999809265137,10.300000190734863,10.300000190734863,204316
2004-05-24,10.350000381469727,10.899999618530273,10.350000381469727,10.5,10.5,162367
2004-05-25,10.5,11.75,10.149999618530273,11.399999618530273,11.399999618530273,891919
2004-05-26,11.600000381469727,11.850000381469727,11.300000190734863,11.5,11.5,484542
2004-05-27,11.449999809265137,11.449999809265137,10.75,10.949999809265137,10.949999809265137,277654
2004-05-28,10.899999618530273,10.899999618530273,10.350000381469727,10.399999618530273,10.399999618530273,320586
2004-05-31,10.050000190734863,10.300000190734863,9.649999618530273,9.75,9.75,282060
2004-06-01,10.0,10.300000190734863,9.800000190734863,9.850000381469727,9.850000381469727,196932
2004-06-02,10.149999618530273,10.25,9.850000381469727,10.0,10.0,109795
2004-06-03,10.100000381469727,10.199999809265137,9.550000190734863,9.600000381469727,9.600000381469727,128803
2004-06-04,9.699999809265137,10.300000190734863,9.699999809265137,10.0,10.0,234282
2004-06-07,10.0,10.100000381469727,9.649999618530273,9.75,9.75,188528
2004-06-08,9.649999618530273,9.75,9.600000381469727,9.600000381469727,9.600000381469727,48375
2004-06-09,9.649999618530273,9.850000381469727,9.649999618530273,9.649999618530273,9.649999618530273,57060
2004-06-10,9.600000381469727,9.75,9.5,9.600000381469727,9.600000381469727,88841
2004-06-11,9.649999618530273,9.649999618530273,9.399999618530273,9.449999809265137,9.449999809265137,82641
2004-06-14,9.399999618530273,9.5,9.0,9.100000381469727,9.100000381469727,130941
2004-06-15,9.149999618530273,9.199999809265137,9.0,9.050000190734863,9.050000190734863,68924
2004-06-16,9.550000190734863,9.550000190734863,9.050000190734863,9.050000190734863,9.050000190734863,87073
2004-06-17,9.25,9.25,9.050000190734863,9.100000381469727,9.100000381469727,52959
2004-06-18,9.050000190734863,9.25,9.0,9.050000190734863,9.050000190734863,69988
2004-06-21,9.0,9.25,8.899999618530273,8.949999809265137,8.949999809265137,57810
2004-06-22,9.0,9.0,8.899999618530273,8.899999618530273,8.899999618530273,52798
2004-06-23,9.0,9.050000190734863,8.75,8.800000190734863,8.800000190734863,49218
2004-06-24,8.850000381469727,8.850000381469727,8.550000190734863,8.649999618530273,8.649999618530273,69137
2004-06-25,8.699999809265137,8.949999809265137,8.600000381469727,8.850000381469727,8.850000381469727,62419
2004-06-28,10.600000381469727,10.600000381469727,9.0,9.149999618530273,9.149999618530273,88476
2004-06-29,9.25,9.25,8.850000381469727,8.899999618530273,8.899999618530273,82341
2004-06-30,9.0,9.149999618530273,8.949999809265137,9.0,9.0,65372
2004-07-01,9.0,9.050000190734863,8.850000381469727,8.899999618530273,8.899999618530273,33424
2004-07-02,9.0,9.100000381469727,8.850000381469727,9.0,9.0,50709
2004-07-05,9.0,9.300000190734863,8.899999618530273,8.899999618530273,8.899999618530273,62640
2004-07-06,8.850000381469727,9.050000190734863,8.850000381469727,8.949999809265137,8.949999809265137,69119
2004-07-07,8.949999809265137,9.149999618530273,8.850000381469727,8.899999618530273,8.899999618530273,92253
2004-07-08,8.800000190734863,9.100000381469727,8.649999618530273,8.699999809265137,8.699999809265137,85751
2004-07-09,8.75,8.899999618530273,8.600000381469727,8.699999809265137,8.699999809265137,73921
2004-07-12,8.600000381469727,8.899999618530273,8.600000381469727,8.649999618530273,8.649999618530273,37262
2004-07-13,8.600000381469727,8.800000190734863,8.600000381469727,8.649999618530273,8.649999618530273,41239
2004-07-14,9.0,10.399999618530273,8.350000381469727,9.5,9.5,381211
2004-07-15,9.600000381469727,9.800000190734863,9.100000381469727,9.399999618530273,9.399999618530273,137284
2004-07-16,9.449999809265137,10.699999809265137,9.25,9.850000381469727,9.850000381469727,430972
2004-07-19,10.0,10.199999809265137,9.699999809265137,9.800000190734863,9.800000190734863,190027
2004-07-20,9.600000381469727,10.0,9.5,9.649999618530273,9.649999618530273,116446
2004-07-21,9.699999809265137,10.0,9.600000381469727,9.800000190734863,9.800000190734863,95176
2004-07-22,10.0,10.649999618530273,9.699999809265137,10.100000381469727,10.100000381469727,382290
2004-07-23,10.350000381469727,10.350000381469727,9.449999809265137,10.149999618530273,10.149999618530273,190096
2004-07-26,10.5,10.5,9.850000381469727,9.899999618530273,9.899999618530273,93126
2004-07-27,9.899999618530273,10.100000381469727,9.300000190734863,9.699999809265137,9.699999809265137,260050
2004-07-28,9.600000381469727,9.850000381469727,9.300000190734863,9.350000381469727,9.350000381469727,97538
2004-07-29,9.5,9.600000381469727,9.300000190734863,9.350000381469727,9.350000381469727,44899
2004-07-30,9.399999618530273,9.600000381469727,9.25,9.300000190734863,9.300000190734863,90948
2004-08-02,9.300000190734863,9.649999618530273,9.100000381469727,9.199999809265137,9.199999809265137,98692
2004-08-03,9.800000190734863,9.800000190734863,9.100000381469727,9.199999809265137,9.199999809265137,168295
2004-08-04,9.5,9.5,9.199999809265137,9.25,9.25,116608
2004-08-05,9.25,10.050000190734863,8.75,9.199999809265137,9.199999809265137,1881186
2004-08-06,9.100000381469727,9.199999809265137,8.5,9.050000190734863,9.050000190734863,404877
2004-08-09,9.0,9.25,8.899999618530273,9.149999618530273,9.149999618530273,151738
2004-08-10,9.300000190734863,10.199999809265137,9.300000190734863,9.75,9.75,686154
2004-08-11,9.899999618530273,10.0,9.199999809265137,9.25,9.25,221103
2004-08-12,9.600000381469727,9.600000381469727,9.149999618530273,9.199999809265137,9.199999809265137,136281
2004-08-13,9.199999809265137,9.300000190734863,9.100000381469727,9.149999618530273,9.149999618530273,78912
2004-08-16,9.199999809265137,9.350000381469727,9.100000381469727,9.199999809265137,9.199999809265137,90305
2004-08-17,9.25,9.699999809265137,9.100000381469727,9.449999809265137,9.449999809265137,227933
2004-08-18,9.449999809265137,9.5,9.149999618530273,9.199999809265137,9.199999809265137,132072
2004-08-19,9.300000190734863,9.800000190734863,9.25,9.699999809265137,9.699999809265137,645216
2004-08-20,9.699999809265137,10.300000190734863,9.300000190734863,10.0,10.0,1046720
2004-08-23,10.350000381469727,10.399999618530273,9.800000190734863,9.850000381469727,9.850000381469727,359864
2004-08-24,10.0,10.149999618530273,9.699999809265137,9.800000190734863,9.800000190734863,258769
2004-08-25,9.899999618530273,10.050000190734863,9.600000381469727,9.699999809265137,9.699999809265137,261066
2004-08-26,9.899999618530273,10.199999809265137,9.75,10.100000381469727,10.100000381469727,363870
2004-08-27,10.0,10.449999809265137,10.0,10.100000381469727,10.100000381469727,288295
2004-08-30,10.350000381469727,11.100000381469727,10.100000381469727,10.699999809265137,10.699999809265137,1074045
2004-08-31,10.899999618530273,11.149999618530273,10.550000190734863,11.0,11.0,1049339
2004-09-01,11.25,11.25,10.550000190734863,10.75,10.75,585151
2004-09-02,11.0,11.5,10.649999618530273,10.800000190734863,10.800000190734863,871163
2004-09-03,10.850000381469727,10.899999618530273,10.5,10.600000381469727,10.600000381469727,278264
2004-09-06,10.800000190734863,10.850000381469727,10.600000381469727,10.699999809265137,10.699999809265137,253086
2004-09-07,10.850000381469727,10.850000381469727,10.350000381469727,10.5,10.5,189413
2004-09-08,10.649999618530273,10.75,10.449999809265137,10.5,10.5,188916
2004-09-09,10.0,10.800000190734863,10.0,10.199999809265137,10.199999809265137,257862
2004-09-10,10.399999618530273,10.899999618530273,10.25,10.699999809265137,10.699999809265137,333535
2004-09-13,11.0,11.5,10.850000381469727,11.100000381469727,11.100000381469727,1040728
2004-09-14,11.449999809265137,12.050000190734863,11.100000381469727,11.699999809265137,11.699999809265137,1921905
2004-09-15,11.899999618530273,12.949999809265137,11.850000381469727,12.649999618530273,12.649999618530273,4915567
2004-09-16,12.699999809265137,13.199999809265137,12.399999618530273,12.5,12.5,3049548
2004-09-17,12.5,12.699999809265137,11.75,11.850000381469727,11.850000381469727,1494708
2004-09-20,12.199999809265137,12.199999809265137,11.25,11.350000381469727,11.350000381469727,628661
2004-09-21,11.100000381469727,12.050000190734863,10.100000381469727,11.649999618530273,11.649999618530273,672031
2004-09-22,11.699999809265137,11.699999809265137,11.300000190734863,11.449999809265137,11.449999809265137,244059
2004-09-23,11.649999618530273,11.649999618530273,11.149999618530273,11.199999809265137,11.199999809265137,240725
2004-09-24,11.0,12.25,11.0,11.699999809265137,11.699999809265137,745456
2004-09-27,11.899999618530273,12.0,11.300000190734863,11.399999618530273,11.399999618530273,219766
2004-09-28,11.350000381469727,11.649999618530273,11.149999618530273,11.25,11.25,246550
2004-09-29,11.449999809265137,11.5,11.050000190734863,11.149999618530273,11.149999618530273,277371
2004-09-30,11.449999809265137,12.050000190734863,11.25,11.649999618530273,11.649999618530273,750856
2004-10-01,12.0,12.0,11.449999809265137,11.550000190734863,11.550000190734863,220369
2004-10-04,12.0,12.100000381469727,11.600000381469727,11.699999809265137,11.699999809265137,540703
2004-10-05,11.5,11.949999809265137,11.5,11.649999618530273,11.649999618530273,282148
2004-10-06,12.0,12.0,11.5,11.550000190734863,11.550000190734863,544680
2004-10-07,11.5,11.850000381469727,11.5,11.649999618530273,11.649999618530273,294066
2004-10-08,11.949999809265137,11.949999809265137,11.550000190734863,11.600000381469727,11.600000381469727,264785
2004-10-11,11.899999618530273,12.0,11.350000381469727,11.399999618530273,11.399999618530273,352104
2004-10-12,11.399999618530273,11.5,10.949999809265137,11.0,11.0,254764
2004-10-13,11.0,11.0,11.0,11.0,11.0,0
2004-10-14,10.899999618530273,11.199999809265137,10.800000190734863,10.899999618530273,10.899999618530273,153801
2004-10-15,10.949999809265137,11.25,10.75,10.800000190734863,10.800000190734863,161322
2004-10-18,10.899999618530273,10.949999809265137,10.699999809265137,10.75,10.75,119763
2004-10-19,10.699999809265137,10.899999618530273,10.699999809265137,10.75,10.75,79766
2004-10-20,10.699999809265137,11.550000190734863,10.699999809265137,11.050000190734863,11.050000190734863,476000
2004-10-21,11.149999618530273,11.300000190734863,10.800000190734863,10.899999618530273,10.899999618530273,231088
2004-10-22,10.899999618530273,10.899999618530273,10.899999618530273,10.899999618530273,10.899999618530273,0
2004-10-25,11.199999809265137,11.199999809265137,10.550000190734863,10.649999618530273,10.649999618530273,122159
2004-10-26,10.649999618530273,10.699999809265137,10.300000190734863,10.5,10.5,164869
2004-10-27,10.550000190734863,11.0,10.5,10.550000190734863,10.550000190734863,109379
2004-10-28,10.600000381469727,10.899999618530273,10.550000190734863,10.600000381469727,10.600000381469727,144392
2004-10-29,10.75,11.300000190734863,10.75,11.050000190734863,11.050000190734863,323247
2004-11-01,11.449999809265137,11.649999618530273,11.199999809265137,11.399999618530273,11.399999618530273,509676
2004-11-02,11.699999809265137,11.699999809265137,11.050000190734863,11.100000381469727,11.100000381469727,157004
2004-11-03,11.649999618530273,11.649999618530273,10.850000381469727,10.949999809265137,10.949999809265137,236458
2004-11-04,11.199999809265137,11.300000190734863,10.899999618530273,11.0,11.0,179679
2004-11-05,11.149999618530273,11.199999809265137,10.800000190734863,10.899999618530273,10.899999618530273,180817
2004-11-08,10.850000381469727,11.0,10.75,10.800000190734863,10.800000190734863,233869
2004-11-09,10.5,11.5,10.5,11.050000190734863,11.050000190734863,441474
2004-11-10,11.149999618530273,11.5,11.0,11.25,11.25,330957
2004-11-11,11.050000190734863,11.449999809265137,10.699999809265137,11.199999809265137,11.199999809265137,160049
2004-11-12,11.300000190734863,11.449999809265137,11.050000190734863,11.350000381469727,11.350000381469727,130182
2004-11-15,11.350000381469727,11.350000381469727,11.350000381469727,11.350000381469727,11.350000381469727,0
2004-11-16,11.399999618530273,11.399999618530273,10.949999809265137,11.199999809265137,11.199999809265137,221935
2004-11-17,11.350000381469727,11.399999618530273,11.100000381469727,11.199999809265137,11.199999809265137,290329
2004-11-18,11.050000190734863,11.350000381469727,11.050000190734863,11.149999618530273,11.149999618530273,322188
2004-11-19,11.600000381469727,11.75,11.199999809265137,11.300000190734863,11.300000190734863,606579
2004-11-22,11.25,12.399999618530273,11.149999618530273,12.25,12.25,1823310
2004-11-23,12.399999618530273,13.25,12.399999618530273,12.850000381469727,12.850000381469727,2457045
2004-11-24,13.25,14.25,13.0,13.850000381469727,13.850000381469727,4476446
2004-11-25,14.25,14.25,13.25,13.449999809265137,13.449999809265137,1641370
2004-11-26,13.449999809265137,13.449999809265137,13.449999809265137,13.449999809265137,13.449999809265137,0
2004-11-29,13.649999618530273,14.0,13.600000381469727,13.699999809265137,13.699999809265137,880471
2004-11-30,13.899999618530273,14.0,12.75,12.800000190734863,12.800000190734863,1022557
2004-12-01,12.899999618530273,12.949999809265137,12.300000190734863,12.75,12.75,475478
2004-12-02,13.0,13.399999618530273,12.5,12.649999618530273,12.649999618530273,588927
2004-12-03,13.0,13.699999809265137,12.399999618530273,13.199999809265137,13.199999809265137,1238683
2004-12-06,13.5,13.75,13.100000381469727,13.149999618530273,13.149999618530273,622968
2004-12-07,13.449999809265137,13.600000381469727,13.0,13.350000381469727,13.350000381469727,568497
2004-12-08,13.100000381469727,13.600000381469727,13.0,13.100000381469727,13.100000381469727,431312
2004-12-09,13.25,13.350000381469727,13.0,13.100000381469727,13.100000381469727,332787
2004-12-10,13.399999618530273,13.5,12.75,12.899999618530273,12.899999618530273,744957
2004-12-13,12.600000381469727,13.5,12.600000381469727,13.300000190734863,13.300000190734863,597466
2004-12-14,13.100000381469727,13.600000381469727,13.100000381469727,13.399999618530273,13.399999618530273,757834
2004-12-15,13.5,13.949999809265137,13.350000381469727,13.449999809265137,13.449999809265137,1078367
2004-12-16,13.75,13.850000381469727,13.25,13.5,13.5,775052
2004-12-17,14.399999618530273,14.399999618530273,13.25,13.350000381469727,13.350000381469727,394564
2004-12-20,13.800000190734863,13.899999618530273,13.300000190734863,13.449999809265137,13.449999809265137,572600
2004-12-21,13.800000190734863,13.949999809265137,13.300000190734863,13.350000381469727,13.350000381469727,598098
2004-12-22,13.600000381469727,13.649999618530273,13.0,13.050000190734863,13.050000190734863,726640
2004-12-23,13.199999809265137,13.350000381469727,13.0,13.149999618530273,13.149999618530273,356224
2004-12-24,13.100000381469727,13.699999809265137,12.899999618530273,13.300000190734863,13.300000190734863,605214
2004-12-27,13.300000190734863,16.0,13.199999809265137,16.0,16.0,6897041
2004-12-28,16.399999618530273,17.399999618530273,15.5,16.600000381469727,16.600000381469727,7426875
2004-12-29,16.649999618530273,17.0,15.5,15.800000190734863,15.800000190734863,2457633
2004-12-30,16.25,17.0,15.600000381469727,16.25,16.25,2904014
