Date,Open,High,Low,Close,Adj Close,Volume
2012-01-02,7.25,8.0,7.25,7.900000095367432,7.900000095367432,7863
2012-01-03,8.0,8.199999809265137,7.800000190734863,8.149999618530273,8.149999618530273,9983
2012-01-04,8.100000381469727,8.600000381469727,8.100000381469727,8.5,8.5,12120
2012-01-05,7.900000095367432,8.75,7.900000095367432,8.5,8.5,20121
2012-01-06,8.5,8.649999618530273,8.449999809265137,8.600000381469727,8.600000381469727,12398
2012-01-09,8.899999618530273,9.0,8.449999809265137,8.600000381469727,8.600000381469727,7297
2012-01-10,8.5,9.399999618530273,8.5,9.300000190734863,9.300000190734863,15215
2012-01-11,9.300000190734863,10.449999809265137,9.0,9.649999618530273,9.649999618530273,49316
2012-01-12,9.800000190734863,9.800000190734863,9.350000381469727,9.5,9.5,4463
2012-01-13,9.25,11.399999618530273,9.25,11.300000190734863,11.300000190734863,228439
2012-01-16,11.800000190734863,11.949999809265137,10.199999809265137,10.550000190734863,10.550000190734863,84863
2012-01-17,10.600000381469727,10.949999809265137,10.100000381469727,10.199999809265137,10.199999809265137,79056
2012-01-18,10.199999809265137,10.850000381469727,10.050000190734863,10.149999618530273,10.149999618530273,32564
2012-01-19,10.050000190734863,10.25,9.949999809265137,10.149999618530273,10.149999618530273,18792
2012-01-20,10.149999618530273,10.149999618530273,9.800000190734863,9.850000381469727,9.850000381469727,4394
2012-01-23,9.899999618530273,10.100000381469727,9.550000190734863,9.649999618530273,9.649999618530273,6107
2012-01-24,9.699999809265137,9.800000190734863,9.399999618530273,9.5,9.5,6153
2012-01-25,9.399999618530273,9.800000190734863,9.300000190734863,9.449999809265137,9.449999809265137,13294
2012-01-27,9.25,9.899999618530273,9.25,9.850000381469727,9.850000381469727,8889
2012-01-30,9.600000381469727,9.899999618530273,9.449999809265137,9.75,9.75,10496
2012-01-31,9.5,9.600000381469727,9.399999618530273,9.550000190734863,9.550000190734863,6030
2012-02-01,9.649999618530273,10.0,9.449999809265137,10.0,10.0,15300
2012-02-02,10.100000381469727,10.5,10.0,10.100000381469727,10.100000381469727,17752
2012-02-03,10.25,10.25,9.850000381469727,9.899999618530273,9.899999618530273,17967
2012-02-06,10.100000381469727,10.350000381469727,9.899999618530273,9.899999618530273,9.899999618530273,14718
2012-02-07,10.0,10.0,9.850000381469727,9.850000381469727,9.850000381469727,2965
2012-02-08,10.0,10.100000381469727,9.850000381469727,9.899999618530273,9.899999618530273,5524
2012-02-09,9.949999809265137,10.050000190734863,9.600000381469727,10.050000190734863,10.050000190734863,6908
2012-02-10,10.100000381469727,10.100000381469727,9.649999618530273,9.75,9.75,12165
2012-02-13,9.75,9.75,9.600000381469727,9.600000381469727,9.600000381469727,4608
2012-02-14,10.0,10.050000190734863,9.5,9.699999809265137,9.699999809265137,10770
2012-02-15,9.649999618530273,9.899999618530273,9.600000381469727,9.75,9.75,11594
2012-02-16,9.850000381469727,9.899999618530273,9.649999618530273,9.75,9.75,26713
2012-02-17,10.0,10.199999809265137,9.75,9.800000190734863,9.800000190734863,22384
2012-02-21,9.850000381469727,10.100000381469727,9.850000381469727,9.949999809265137,9.949999809265137,12097
2012-02-22,9.850000381469727,10.100000381469727,9.5,9.649999618530273,9.649999618530273,16505
2012-02-23,9.300000190734863,9.5,9.199999809265137,9.5,9.5,3631
2012-02-24,9.25,9.25,9.050000190734863,9.050000190734863,9.050000190734863,12566
2012-02-27,9.100000381469727,9.100000381469727,8.600000381469727,8.850000381469727,8.850000381469727,7260
2012-02-28,9.25,9.25,9.0,9.100000381469727,9.100000381469727,5551
2012-02-29,9.050000190734863,9.449999809265137,8.800000190734863,9.050000190734863,9.050000190734863,4064
2012-03-01,9.050000190734863,9.25,9.0,9.199999809265137,9.199999809265137,2475
2012-03-02,9.149999618530273,9.600000381469727,9.0,9.149999618530273,9.149999618530273,7442
2012-03-05,9.449999809265137,9.449999809265137,9.100000381469727,9.100000381469727,9.100000381469727,10561
2012-03-06,9.149999618530273,9.199999809265137,8.850000381469727,8.899999618530273,8.899999618530273,9042
2012-03-07,8.75,8.850000381469727,8.5,8.550000190734863,8.550000190734863,18137
2012-03-09,8.850000381469727,8.899999618530273,8.350000381469727,8.550000190734863,8.550000190734863,9896
2012-03-12,8.649999618530273,9.050000190734863,8.5,8.600000381469727,8.600000381469727,18957
2012-03-13,8.550000190734863,9.149999618530273,8.550000190734863,9.0,9.0,7931
2012-03-14,8.850000381469727,8.949999809265137,8.75,8.800000190734863,8.800000190734863,12534
2012-03-15,8.550000190734863,8.949999809265137,8.550000190734863,8.699999809265137,8.699999809265137,5876
2012-03-16,8.850000381469727,8.949999809265137,8.399999618530273,8.449999809265137,8.449999809265137,6534
2012-03-19,8.5,9.25,8.5,8.600000381469727,8.600000381469727,24958
2012-03-20,8.75,9.100000381469727,8.75,9.0,9.0,13251
2012-03-21,9.0,9.199999809265137,8.800000190734863,9.0,9.0,8683
2012-03-22,8.600000381469727,9.0,8.550000190734863,8.550000190734863,8.550000190734863,13664
2012-03-23,8.75,8.75,8.100000381469727,8.199999809265137,8.199999809265137,10092
2012-03-26,8.0,8.300000190734863,8.0,8.199999809265137,8.199999809265137,3408
2012-03-27,8.149999618530273,8.649999618530273,8.0,8.100000381469727,8.100000381469727,16456
2012-03-28,8.0,8.0,7.550000190734863,7.900000095367432,7.900000095367432,13079
2012-03-29,7.599999904632568,7.900000095367432,7.599999904632568,7.800000190734863,7.800000190734863,3258
2012-03-30,7.800000190734863,8.199999809265137,7.75,7.800000190734863,7.800000190734863,11080
2012-04-02,7.949999809265137,8.300000190734863,7.900000095367432,8.149999618530273,8.149999618530273,3702
2012-04-03,8.050000190734863,8.5,8.050000190734863,8.25,8.25,5840
2012-04-04,8.199999809265137,8.5,8.199999809265137,8.25,8.25,6611
2012-04-09,8.100000381469727,8.300000190734863,8.050000190734863,8.25,8.25,1809
2012-04-10,8.0,8.399999618530273,8.0,8.350000381469727,8.350000381469727,8455
2012-04-11,8.300000190734863,8.449999809265137,8.199999809265137,8.199999809265137,8.199999809265137,4796
2012-04-12,8.0,8.399999618530273,8.0,8.300000190734863,8.300000190734863,7065
2012-04-13,8.050000190734863,8.5,8.050000190734863,8.300000190734863,8.300000190734863,8418
2012-04-16,8.0,8.199999809265137,7.800000190734863,8.199999809265137,8.199999809265137,4036
2012-04-17,8.399999618530273,9.0,8.300000190734863,8.850000381469727,8.850000381469727,29324
2012-04-18,8.600000381469727,9.0,8.449999809265137,8.5,8.5,12413
2012-04-19,8.899999618530273,9.350000381469727,8.850000381469727,9.350000381469727,9.350000381469727,75596
2012-04-20,9.600000381469727,9.949999809265137,8.699999809265137,8.949999809265137,8.949999809265137,32837
2012-04-23,9.0,9.800000190734863,8.899999618530273,8.949999809265137,8.949999809265137,129887
2012-04-24,9.75,9.75,8.699999809265137,8.800000190734863,8.800000190734863,6488
2012-04-25,9.0,9.0,8.75,8.800000190734863,8.800000190734863,5505
2012-04-26,8.100000381469727,8.699999809265137,8.100000381469727,8.25,8.25,16796
2012-04-27,8.25,8.600000381469727,8.25,8.5,8.5,6246
2012-04-30,8.399999618530273,8.649999618530273,8.199999809265137,8.300000190734863,8.300000190734863,9772
2012-05-02,8.199999809265137,8.850000381469727,8.199999809265137,8.300000190734863,8.300000190734863,4108
2012-05-03,8.199999809265137,8.350000381469727,8.050000190734863,8.199999809265137,8.199999809265137,7447
2012-05-04,8.199999809265137,8.300000190734863,7.849999904632568,8.0,8.0,10682
2012-05-07,8.0,8.149999618530273,7.800000190734863,8.0,8.0,3355
2012-05-08,8.199999809265137,8.350000381469727,7.949999809265137,7.949999809265137,7.949999809265137,1791
2012-05-09,7.699999809265137,8.0,7.699999809265137,7.849999904632568,7.849999904632568,6371
2012-05-10,7.75,8.050000190734863,7.050000190734863,7.849999904632568,7.849999904632568,9691
2012-05-11,7.25,8.149999618530273,7.199999809265137,7.800000190734863,7.800000190734863,22836
2012-05-14,7.550000190734863,7.650000095367432,7.5,7.550000190734863,7.550000190734863,1814
2012-05-15,7.599999904632568,7.949999809265137,7.050000190734863,7.150000095367432,7.150000095367432,19796
2012-05-16,6.900000095367432,7.5,6.900000095367432,7.400000095367432,7.400000095367432,4142
2012-05-17,7.699999809265137,7.699999809265137,6.650000095367432,7.050000190734863,7.050000190734863,8124
2012-05-18,6.800000190734863,7.25,6.5,7.099999904632568,7.099999904632568,5847
2012-05-21,7.150000095367432,7.75,7.150000095367432,7.25,7.25,3406
2012-05-22,7.900000095367432,8.199999809265137,7.199999809265137,7.25,7.25,4785
2012-05-23,7.099999904632568,7.25,7.050000190734863,7.099999904632568,7.099999904632568,2343
2012-05-24,7.25,7.25,7.0,7.099999904632568,7.099999904632568,6351
2012-05-25,7.0,7.400000095367432,7.0,7.150000095367432,7.150000095367432,6340
2012-05-28,7.449999809265137,7.599999904632568,7.199999809265137,7.25,7.25,1782
2012-05-29,7.050000190734863,8.699999809265137,7.050000190734863,8.699999809265137,8.699999809265137,38002
2012-05-30,8.699999809265137,9.300000190734863,7.699999809265137,7.75,7.75,62031
2012-05-31,7.800000190734863,8.0,7.300000190734863,7.900000095367432,7.900000095367432,21705
2012-06-01,7.550000190734863,7.949999809265137,7.5,7.699999809265137,7.699999809265137,4595
2012-06-04,7.25,8.149999618530273,7.25,7.849999904632568,7.849999904632568,17677
2012-06-05,7.599999904632568,8.0,7.599999904632568,7.949999809265137,7.949999809265137,21219
2012-06-06,7.800000190734863,8.75,7.699999809265137,8.449999809265137,8.449999809265137,45424
2012-06-07,8.850000381469727,9.75,8.5,9.0,9.0,86101
2012-06-08,8.949999809265137,9.149999618530273,8.800000190734863,8.800000190734863,8.800000190734863,16908
2012-06-11,8.550000190734863,8.800000190734863,8.550000190734863,8.649999618530273,8.649999618530273,9781
2012-06-12,8.399999618530273,8.899999618530273,8.350000381469727,8.649999618530273,8.649999618530273,5711
2012-06-13,8.350000381469727,8.649999618530273,7.25,8.350000381469727,8.350000381469727,12389
2012-06-14,8.449999809265137,8.449999809265137,8.149999618530273,8.300000190734863,8.300000190734863,3057
2012-06-15,8.0,8.399999618530273,8.0,8.25,8.25,4084
2012-06-18,8.25,8.350000381469727,8.25,8.300000190734863,8.300000190734863,8227
2012-06-19,8.050000190734863,8.449999809265137,8.050000190734863,8.199999809265137,8.199999809265137,2170
2012-06-20,8.149999618530273,8.25,8.0,8.100000381469727,8.100000381469727,5877
2012-06-21,8.25,8.25,7.849999904632568,8.100000381469727,8.100000381469727,7959
2012-06-22,8.050000190734863,8.5,8.050000190734863,8.149999618530273,8.149999618530273,4388
2012-06-25,8.5,8.5,8.0,8.25,8.25,7471
2012-06-26,8.199999809265137,8.350000381469727,8.149999618530273,8.25,8.25,5207
2012-06-27,8.0,8.449999809265137,8.0,8.199999809265137,8.199999809265137,14960
2012-06-28,8.199999809265137,8.75,8.199999809265137,8.550000190734863,8.550000190734863,15666
2012-06-29,8.300000190734863,9.0,8.199999809265137,8.600000381469727,8.600000381469727,13034
2012-07-02,8.800000190734863,9.050000190734863,8.699999809265137,8.850000381469727,8.850000381469727,15704
2012-07-03,9.0,9.0,8.75,8.899999618530273,8.899999618530273,13213
2012-07-04,8.850000381469727,9.25,8.850000381469727,9.100000381469727,9.100000381469727,10057
2012-07-05,9.100000381469727,9.5,9.100000381469727,9.350000381469727,9.350000381469727,25269
2012-07-06,9.300000190734863,10.399999618530273,9.300000190734863,9.699999809265137,9.699999809265137,68209
2012-07-09,9.149999618530273,10.100000381469727,9.149999618530273,9.5,9.5,16562
2012-07-10,9.25,9.550000190734863,9.25,9.350000381469727,9.350000381469727,8918
2012-07-11,9.449999809265137,10.850000381469727,9.350000381469727,10.600000381469727,10.600000381469727,146482
2012-07-12,10.550000190734863,10.899999618530273,10.050000190734863,10.199999809265137,10.199999809265137,66215
2012-07-13,10.199999809265137,10.550000190734863,9.899999618530273,9.899999618530273,9.899999618530273,21389
2012-07-16,9.850000381469727,9.899999618530273,9.300000190734863,9.399999618530273,9.399999618530273,38621
2012-07-17,9.399999618530273,9.75,9.300000190734863,9.449999809265137,9.449999809265137,5557
2012-07-18,9.149999618530273,9.5,9.149999618530273,9.350000381469727,9.350000381469727,7971
2012-07-19,9.399999618530273,9.649999618530273,9.399999618530273,9.550000190734863,9.550000190734863,8251
2012-07-20,9.800000190734863,9.800000190734863,9.149999618530273,9.399999618530273,9.399999618530273,10102
2012-07-23,9.149999618530273,9.449999809265137,9.050000190734863,9.350000381469727,9.350000381469727,5310
2012-07-24,9.100000381469727,10.25,9.100000381469727,9.25,9.25,11656
2012-07-25,9.100000381469727,9.25,9.100000381469727,9.199999809265137,9.199999809265137,1788
2012-07-26,9.199999809265137,10.5,8.899999618530273,9.0,9.0,7114
2012-07-27,9.5,9.5,8.600000381469727,8.699999809265137,8.699999809265137,3653
2012-07-30,8.5,8.850000381469727,8.100000381469727,8.449999809265137,8.449999809265137,6150
2012-07-31,8.600000381469727,8.850000381469727,8.399999618530273,8.550000190734863,8.550000190734863,7429
2012-08-01,8.199999809265137,8.699999809265137,8.100000381469727,8.399999618530273,8.399999618530273,16214
2012-08-02,8.75,8.75,8.25,8.300000190734863,8.300000190734863,4474
2012-08-03,8.050000190734863,8.449999809265137,8.050000190734863,8.25,8.25,1717
2012-08-06,8.449999809265137,8.5,8.300000190734863,8.350000381469727,8.350000381469727,10935
2012-08-07,8.300000190734863,8.600000381469727,8.149999618530273,8.5,8.5,11513
2012-08-08,8.25,8.649999618530273,8.25,8.350000381469727,8.350000381469727,6667
2012-08-09,8.399999618530273,8.699999809265137,8.25,8.25,8.25,3252
2012-08-10,8.199999809265137,8.300000190734863,8.149999618530273,8.199999809265137,8.199999809265137,1654
2012-08-13,8.199999809265137,8.75,8.199999809265137,8.5,8.5,1782
2012-08-14,9.699999809265137,9.699999809265137,8.199999809265137,8.25,8.25,3141
2012-08-16,8.25,8.449999809265137,8.25,8.300000190734863,8.300000190734863,4310
2012-08-17,8.25,8.399999618530273,8.100000381469727,8.25,8.25,17248
2012-08-21,8.100000381469727,8.350000381469727,8.100000381469727,8.149999618530273,8.149999618530273,10216
2012-08-22,8.149999618530273,8.850000381469727,8.149999618530273,8.199999809265137,8.199999809265137,10777
2012-08-23,8.199999809265137,8.850000381469727,8.050000190734863,8.649999618530273,8.649999618530273,16609
2012-08-24,10.350000381469727,10.350000381469727,9.100000381469727,9.899999618530273,9.899999618530273,128913
2012-08-27,9.649999618530273,9.850000381469727,8.75,8.899999618530273,8.899999618530273,37796
2012-08-28,8.899999618530273,9.449999809265137,8.800000190734863,9.050000190734863,9.050000190734863,27418
2012-08-29,9.050000190734863,9.350000381469727,8.800000190734863,9.100000381469727,9.100000381469727,9769
2012-08-30,8.850000381469727,9.149999618530273,8.850000381469727,9.0,9.0,7322
2012-08-31,9.350000381469727,9.649999618530273,9.0,9.050000190734863,9.050000190734863,16411
2012-09-03,8.899999618530273,9.649999618530273,8.899999618530273,9.300000190734863,9.300000190734863,22422
2012-09-04,9.300000190734863,10.25,9.300000190734863,10.0,10.0,146981
2012-09-05,9.949999809265137,12.0,9.949999809265137,12.0,12.0,621005
2012-09-06,12.800000190734863,14.100000381469727,12.300000190734863,13.699999809265137,13.699999809265137,1608646
2012-09-07,13.5,14.199999809265137,12.5,12.699999809265137,12.699999809265137,479024
2012-09-10,13.0,13.0,12.449999809265137,12.600000381469727,12.600000381469727,85305
2012-09-11,12.5,12.5,11.550000190734863,12.050000190734863,12.050000190734863,73631
2012-09-12,12.100000381469727,12.100000381469727,11.100000381469727,11.449999809265137,11.449999809265137,86392
2012-09-13,11.699999809265137,11.850000381469727,10.449999809265137,10.75,10.75,71128
2012-09-14,10.75,11.649999618530273,10.550000190734863,11.25,11.25,84108
2012-09-17,11.75,11.75,10.600000381469727,11.149999618530273,11.149999618530273,66499
2012-09-18,11.25,11.449999809265137,10.899999618530273,11.100000381469727,11.100000381469727,15037
2012-09-20,11.0,12.199999809265137,11.0,12.199999809265137,12.199999809265137,60161
2012-09-21,13.149999618530273,13.199999809265137,12.25,12.600000381469727,12.600000381469727,163311
2012-09-24,13.0,13.0,12.050000190734863,12.199999809265137,12.199999809265137,61200
2012-09-25,12.149999618530273,12.149999618530273,11.800000190734863,11.899999618530273,11.899999618530273,39991
2012-09-26,12.0,12.300000190734863,11.850000381469727,12.199999809265137,12.199999809265137,44498
2012-09-27,12.199999809265137,12.5,12.100000381469727,12.350000381469727,12.350000381469727,31157
2012-09-28,12.399999618530273,12.449999809265137,12.050000190734863,12.25,12.25,27653
2012-10-01,12.100000381469727,12.850000381469727,11.800000190734863,12.600000381469727,12.600000381469727,77617
2012-10-03,12.850000381469727,13.5,12.600000381469727,12.800000190734863,12.800000190734863,345808
2012-10-04,12.75,14.050000190734863,12.75,14.050000190734863,14.050000190734863,1004598
2012-10-05,14.5,14.699999809265137,12.899999618530273,13.350000381469727,13.350000381469727,128852
2012-10-08,13.300000190734863,14.399999618530273,13.199999809265137,13.899999618530273,13.899999618530273,180388
2012-10-09,13.949999809265137,14.199999809265137,13.699999809265137,14.149999618530273,14.149999618530273,96558
2012-10-10,14.0,14.0,13.300000190734863,13.75,13.75,54397
2012-10-11,13.399999618530273,13.899999618530273,13.350000381469727,13.550000190734863,13.550000190734863,54875
2012-10-12,13.600000381469727,14.050000190734863,13.25,13.449999809265137,13.449999809265137,74640
2012-10-15,13.75,14.399999618530273,13.25,14.050000190734863,14.050000190734863,97917
2012-10-16,14.5,15.449999809265137,14.350000381469727,14.850000381469727,14.850000381469727,624711
2012-10-17,15.449999809265137,16.299999237060547,14.800000190734863,15.949999809265137,15.949999809265137,717620
2012-10-18,15.899999618530273,16.299999237060547,14.399999618530273,14.399999618530273,14.399999618530273,524663
2012-10-19,14.0,14.75,13.149999618530273,13.300000190734863,13.300000190734863,172499
2012-10-22,13.199999809265137,14.149999618530273,13.149999618530273,13.899999618530273,13.899999618530273,63950
2012-10-23,14.0,14.25,13.25,13.399999618530273,13.399999618530273,38513
2012-10-25,13.850000381469727,13.850000381469727,13.0,13.100000381469727,13.100000381469727,35321
2012-10-29,13.0,13.0,12.25,12.449999809265137,12.449999809265137,19773
2012-10-30,12.5,12.699999809265137,12.0,12.100000381469727,12.100000381469727,16187
2012-10-31,12.0,12.899999618530273,11.850000381469727,12.449999809265137,12.449999809265137,35668
2012-11-01,12.199999809265137,12.699999809265137,12.149999618530273,12.199999809265137,12.199999809265137,23210
2012-11-02,12.300000190734863,12.449999809265137,11.699999809265137,11.850000381469727,11.850000381469727,87627
2012-11-05,11.699999809265137,12.300000190734863,11.199999809265137,11.800000190734863,11.800000190734863,48371
2012-11-06,11.5,12.0,11.449999809265137,11.850000381469727,11.850000381469727,14303
2012-11-07,12.149999618530273,13.0,12.149999618530273,12.699999809265137,12.699999809265137,75109
2012-11-08,12.899999618530273,13.449999809265137,12.550000190734863,13.050000190734863,13.050000190734863,48350
2012-11-09,12.75,13.600000381469727,12.600000381469727,12.699999809265137,12.699999809265137,70069
2012-11-12,12.5,12.850000381469727,12.050000190734863,12.199999809265137,12.199999809265137,22930
2012-11-15,12.0,13.0,11.949999809265137,12.800000190734863,12.800000190734863,64356
2012-11-16,12.800000190734863,12.899999618530273,12.149999618530273,12.449999809265137,12.449999809265137,12746
2012-11-19,12.199999809265137,12.699999809265137,12.050000190734863,12.100000381469727,12.100000381469727,69246
2012-11-20,12.350000381469727,12.699999809265137,12.0,12.149999618530273,12.149999618530273,75710
2012-11-21,12.100000381469727,13.0,12.050000190734863,12.75,12.75,51998
2012-11-22,12.600000381469727,15.300000190734863,12.600000381469727,15.149999618530273,15.149999618530273,1189587
2012-11-23,15.649999618530273,16.450000762939453,13.800000190734863,14.949999809265137,14.949999809265137,827773
2012-11-26,15.0,16.5,15.0,16.350000381469727,16.350000381469727,615309
2012-11-27,16.25,16.25,14.699999809265137,14.949999809265137,14.949999809265137,173735
2012-11-29,15.100000381469727,15.75,14.800000190734863,15.0,15.0,113057
2012-11-30,15.0,15.0,14.25,14.350000381469727,14.350000381469727,88284
2012-12-03,15.449999809265137,15.5,14.25,14.25,14.25,68235
2012-12-04,15.0,17.100000381469727,14.800000190734863,16.0,16.0,1261608
2012-12-05,16.100000381469727,16.649999618530273,15.75,16.350000381469727,16.350000381469727,217361
2012-12-06,15.5,16.950000762939453,15.5,16.799999237060547,16.799999237060547,265788
2012-12-07,16.799999237060547,17.0,15.75,15.899999618530273,15.899999618530273,162853
2012-12-10,16.0,16.399999618530273,15.600000381469727,15.800000190734863,15.800000190734863,64789
2012-12-11,15.899999618530273,16.5,15.5,15.649999618530273,15.649999618530273,78081
2012-12-12,15.699999809265137,16.100000381469727,15.100000381469727,15.25,15.25,39045
2012-12-13,15.25,16.200000762939453,14.850000381469727,14.949999809265137,14.949999809265137,34990
2012-12-14,14.800000190734863,17.399999618530273,14.600000381469727,15.699999809265137,15.699999809265137,945761
2012-12-17,15.899999618530273,15.899999618530273,14.5,14.649999618530273,14.649999618530273,180656
2012-12-18,14.699999809265137,14.949999809265137,14.5,14.75,14.75,66786
2012-12-19,15.050000190734863,15.199999809265137,14.550000190734863,14.649999618530273,14.649999618530273,54163
2012-12-20,14.5,14.800000190734863,14.25,14.399999618530273,14.399999618530273,25749
2012-12-21,14.399999618530273,14.5,13.75,13.899999618530273,13.899999618530273,38555
2012-12-24,13.949999809265137,14.350000381469727,13.699999809265137,13.75,13.75,16237
2012-12-26,13.699999809265137,14.600000381469727,13.699999809265137,14.399999618530273,14.399999618530273,89523
2012-12-27,14.600000381469727,14.899999618530273,13.899999618530273,14.0,14.0,39188
2012-12-28,14.050000190734863,14.300000190734863,13.550000190734863,13.699999809265137,13.699999809265137,24248
