Date,Open,High,Low,Close,Adj Close,Volume
2018-01-01,29.149999618530273,34.95000076293945,29.149999618530273,34.5,34.5,1204415
2018-01-02,35.900001525878906,36.79999923706055,32.349998474121094,33.599998474121094,33.599998474121094,590874
2018-01-03,33.849998474121094,34.599998474121094,32.400001525878906,33.0,33.0,207126
2018-01-04,33.0,39.349998474121094,33.0,38.79999923706055,38.79999923706055,1339824
2018-01-05,38.20000076293945,38.650001525878906,36.25,36.650001525878906,36.650001525878906,465694
2018-01-08,37.29999923706055,38.599998474121094,36.150001525878906,37.400001525878906,37.400001525878906,378540
2018-01-09,37.099998474121094,39.0,36.20000076293945,37.849998474121094,37.849998474121094,362218
2018-01-10,37.70000076293945,39.400001525878906,36.29999923706055,36.650001525878906,36.650001525878906,207622
2018-01-11,36.900001525878906,37.5,35.599998474121094,37.150001525878906,37.150001525878906,214913
2018-01-12,37.5,38.400001525878906,36.0,37.70000076293945,37.70000076293945,332921
2018-01-15,37.900001525878906,38.599998474121094,36.75,36.900001525878906,36.900001525878906,276901
2018-01-16,37.20000076293945,38.0,36.099998474121094,36.20000076293945,36.20000076293945,324027
2018-01-17,36.20000076293945,36.45000076293945,33.70000076293945,34.95000076293945,34.95000076293945,89851
2018-01-18,35.20000076293945,36.0,34.099998474121094,34.5,34.5,125266
2018-01-19,34.75,34.75,33.25,33.75,33.75,76137
2018-01-22,34.099998474121094,34.900001525878906,33.29999923706055,33.75,33.75,69356
2018-01-23,33.900001525878906,34.400001525878906,33.400001525878906,33.70000076293945,33.70000076293945,45874
2018-01-24,33.599998474121094,33.95000076293945,32.099998474121094,32.349998474121094,32.349998474121094,65431
2018-01-25,32.650001525878906,33.29999923706055,32.04999923706055,32.54999923706055,32.54999923706055,50645
2018-01-29,32.29999923706055,33.0,30.049999237060547,30.649999618530273,30.649999618530273,114824
2018-01-30,30.649999618530273,30.649999618530273,27.899999618530273,28.350000381469727,28.350000381469727,154096
2018-01-31,28.5,29.350000381469727,27.75,28.799999237060547,28.799999237060547,70014
2018-02-01,28.5,30.100000381469727,28.350000381469727,29.799999237060547,29.799999237060547,69554
2018-02-02,29.5,29.5,28.0,28.350000381469727,28.350000381469727,76576
2018-02-05,28.0,28.0,26.399999618530273,27.549999237060547,27.549999237060547,49727
2018-02-06,26.299999237060547,29.5,24.049999237060547,28.899999618530273,28.899999618530273,834172
2018-02-07,28.899999618530273,29.700000762939453,28.200000762939453,28.600000381469727,28.600000381469727,67944
2018-02-08,28.649999618530273,31.700000762939453,28.350000381469727,30.25,30.25,149136
2018-02-09,29.200000762939453,30.399999618530273,28.5,29.75,29.75,78246
2018-02-12,30.200000762939453,31.0,29.049999237060547,29.549999237060547,29.549999237060547,288960
2018-02-14,30.0,30.399999618530273,29.0,29.25,29.25,82001
2018-02-15,29.950000762939453,29.950000762939453,28.75,28.799999237060547,28.799999237060547,36126
2018-02-16,28.700000762939453,29.399999618530273,28.0,28.25,28.25,22888
2018-02-19,27.600000381469727,29.399999618530273,27.25,28.5,28.5,168100
2018-02-20,28.200000762939453,28.450000762939453,27.5,28.049999237060547,28.049999237060547,21524
2018-02-21,28.25,28.399999618530273,27.700000762939453,27.950000762939453,27.950000762939453,9267
2018-02-22,28.0,28.299999237060547,26.549999237060547,27.149999618530273,27.149999618530273,10933
2018-02-23,27.899999618530273,29.399999618530273,27.5,28.850000381469727,28.850000381469727,40638
2018-02-26,29.399999618530273,32.5,28.350000381469727,29.149999618530273,29.149999618530273,83870
2018-02-27,29.450000762939453,29.5,28.100000381469727,28.25,28.25,16195
2018-02-28,28.0,28.75,27.700000762939453,28.149999618530273,28.149999618530273,106852
2018-03-01,28.399999618530273,28.600000381469727,27.600000381469727,27.75,27.75,34740
2018-03-05,28.100000381469727,28.299999237060547,27.100000381469727,27.450000762939453,27.450000762939453,36047
2018-03-06,28.0,28.200000762939453,26.799999237060547,27.049999237060547,27.049999237060547,49729
2018-03-07,26.5,28.0,26.25,26.950000762939453,26.950000762939453,56458
2018-03-08,26.950000762939453,26.950000762939453,26.450000762939453,26.600000381469727,26.600000381469727,18211
2018-03-09,26.25,26.950000762939453,26.0,26.5,26.5,26802
2018-03-12,26.649999618530273,27.049999237060547,26.399999618530273,26.75,26.75,20040
2018-03-13,26.5,27.899999618530273,26.450000762939453,27.399999618530273,27.399999618530273,29423
2018-03-14,27.049999237060547,30.600000381469727,27.0,30.25,30.25,128134
2018-03-15,30.149999618530273,30.5,28.5,28.649999618530273,28.649999618530273,31998
2018-03-16,28.950000762939453,30.5,28.350000381469727,28.850000381469727,28.850000381469727,69051
2018-03-19,28.850000381469727,30.5,27.5,28.950000762939453,28.950000762939453,49744
2018-03-20,28.549999237060547,28.899999618530273,27.600000381469727,28.100000381469727,28.100000381469727,51825
2018-03-21,28.899999618530273,29.399999618530273,27.600000381469727,27.700000762939453,27.700000762939453,11109
2018-03-22,28.899999618530273,29.399999618530273,27.25,27.350000381469727,27.350000381469727,27394
2018-03-23,26.100000381469727,27.450000762939453,26.049999237060547,26.25,26.25,48159
2018-03-26,26.25,26.799999237060547,25.0,25.549999237060547,25.549999237060547,246278
2018-03-27,25.799999237060547,26.0,25.0,25.25,25.25,90734
2018-03-28,25.5,25.75,24.5,24.549999237060547,24.549999237060547,53053
2018-04-02,25.450000762939453,25.700000762939453,24.600000381469727,24.799999237060547,24.799999237060547,68222
2018-04-03,24.700000762939453,25.549999237060547,24.049999237060547,24.899999618530273,24.899999618530273,212043
2018-04-04,25.850000381469727,27.350000381469727,25.149999618530273,25.600000381469727,25.600000381469727,52601
2018-04-05,25.75,27.75,25.600000381469727,27.049999237060547,27.049999237060547,125111
2018-04-06,27.649999618530273,27.700000762939453,26.5,27.200000762939453,27.200000762939453,24821
2018-04-09,27.0,28.0,26.600000381469727,27.100000381469727,27.100000381469727,108350
2018-04-10,27.100000381469727,27.75,26.600000381469727,27.200000762939453,27.200000762939453,40344
2018-04-11,27.200000762939453,27.700000762939453,25.899999618530273,26.399999618530273,26.399999618530273,85472
2018-04-12,26.299999237060547,27.25,26.049999237060547,26.149999618530273,26.149999618530273,116092
2018-04-13,26.450000762939453,28.100000381469727,26.399999618530273,27.399999618530273,27.399999618530273,142960
2018-04-16,27.200000762939453,27.5,26.149999618530273,26.399999618530273,26.399999618530273,98479
2018-04-17,27.200000762939453,27.200000762939453,26.649999618530273,26.850000381469727,26.850000381469727,22964
2018-04-18,27.0,27.25,26.600000381469727,26.799999237060547,26.799999237060547,10815
2018-04-19,26.799999237060547,27.149999618530273,26.75,27.0,27.0,13237
2018-04-20,27.0,27.700000762939453,26.549999237060547,26.799999237060547,26.799999237060547,6821
2018-04-23,27.25,27.350000381469727,26.0,26.649999618530273,26.649999618530273,60102
2018-04-24,27.0,27.700000762939453,26.350000381469727,26.850000381469727,26.850000381469727,67272
2018-04-25,26.850000381469727,27.299999237060547,26.0,26.049999237060547,26.049999237060547,81962
2018-04-26,26.049999237060547,26.899999618530273,25.600000381469727,26.450000762939453,26.450000762939453,24854
2018-04-27,27.0,27.5,26.25,27.100000381469727,27.100000381469727,39215
2018-04-30,27.5,27.75,27.149999618530273,27.549999237060547,27.549999237060547,43476
2018-05-02,28.600000381469727,28.600000381469727,26.299999237060547,26.399999618530273,26.399999618530273,33957
2018-05-03,27.299999237060547,27.299999237060547,26.0,26.5,26.5,23307
2018-05-04,27.25,27.75,26.350000381469727,27.700000762939453,27.700000762939453,38549
2018-05-07,27.5,28.700000762939453,27.149999618530273,28.5,28.5,52133
2018-05-08,28.5,29.0,27.549999237060547,28.25,28.25,48730
2018-05-09,28.25,28.75,27.350000381469727,27.450000762939453,27.450000762939453,50899
2018-05-10,27.450000762939453,28.600000381469727,27.0,27.149999618530273,27.149999618530273,36529
2018-05-11,27.149999618530273,27.149999618530273,26.799999237060547,27.049999237060547,27.049999237060547,18827
2018-05-14,27.700000762939453,27.700000762939453,26.549999237060547,26.700000762939453,26.700000762939453,11094
2018-05-15,26.700000762939453,27.100000381469727,26.25,26.600000381469727,26.600000381469727,11669
2018-05-16,26.600000381469727,26.700000762939453,26.100000381469727,26.350000381469727,26.350000381469727,10927
2018-05-17,27.399999618530273,27.399999618530273,26.399999618530273,27.0,27.0,17278
2018-05-18,27.0,27.049999237060547,26.600000381469727,26.700000762939453,26.700000762939453,6469
2018-05-21,26.75,27.149999618530273,24.450000762939453,24.950000762939453,24.950000762939453,45497
2018-05-22,25.0,25.700000762939453,24.049999237060547,24.25,24.25,73614
2018-05-23,24.75,24.950000762939453,24.200000762939453,24.450000762939453,24.450000762939453,32052
2018-05-24,24.399999618530273,24.600000381469727,23.700000762939453,24.100000381469727,24.100000381469727,41146
2018-05-25,23.950000762939453,24.399999618530273,23.899999618530273,24.350000381469727,24.350000381469727,8010
2018-05-28,24.350000381469727,25.25,23.899999618530273,24.700000762939453,24.700000762939453,51292
2018-05-29,24.649999618530273,25.299999237060547,24.649999618530273,25.100000381469727,25.100000381469727,23611
2018-05-30,25.100000381469727,25.799999237060547,24.649999618530273,25.450000762939453,25.450000762939453,42015
2018-05-31,25.0,25.200000762939453,24.299999237060547,24.399999618530273,24.399999618530273,22579
2018-06-01,24.25,24.649999618530273,23.5,23.600000381469727,23.600000381469727,14027
2018-06-04,23.75,24.0,21.0,22.149999618530273,22.149999618530273,90424
2018-06-05,21.799999237060547,22.299999237060547,21.5,22.25,22.25,17796
2018-06-06,22.049999237060547,22.399999618530273,21.149999618530273,22.200000762939453,22.200000762939453,14167
2018-06-07,22.5,22.700000762939453,22.5,22.5,22.5,7769
2018-06-08,22.149999618530273,22.350000381469727,21.25,21.850000381469727,21.850000381469727,42515
2018-06-11,21.799999237060547,21.950000762939453,20.200000762939453,21.549999237060547,21.549999237060547,47887
2018-06-12,21.799999237060547,23.0,21.75,22.350000381469727,22.350000381469727,33910
2018-06-13,22.549999237060547,23.5,22.5,23.350000381469727,23.350000381469727,21124
2018-06-14,22.549999237060547,24.0,22.549999237060547,23.649999618530273,23.649999618530273,31099
2018-06-15,23.649999618530273,23.700000762939453,23.200000762939453,23.25,23.25,10224
2018-06-18,23.25,23.5,22.700000762939453,23.299999237060547,23.299999237060547,10124
2018-06-19,23.0,23.0,22.450000762939453,22.549999237060547,22.549999237060547,5262
2018-06-20,22.600000381469727,22.75,22.0,22.25,22.25,8592
2018-06-21,22.100000381469727,22.75,22.0,22.299999237060547,22.299999237060547,6777
2018-06-22,22.200000762939453,22.5,22.100000381469727,22.299999237060547,22.299999237060547,12025
2018-06-25,21.5,23.25,21.5,23.0,23.0,13308
2018-06-26,22.899999618530273,22.899999618530273,22.549999237060547,22.700000762939453,22.700000762939453,8710
2018-06-27,22.700000762939453,22.700000762939453,19.600000381469727,20.149999618530273,20.149999618530273,124047
2018-06-28,20.350000381469727,23.0,20.25,22.049999237060547,22.049999237060547,103316
2018-06-29,22.0,22.450000762939453,21.549999237060547,22.350000381469727,22.350000381469727,20140
2018-07-02,22.950000762939453,22.950000762939453,21.149999618530273,21.549999237060547,21.549999237060547,8834
2018-07-03,21.75,22.700000762939453,21.299999237060547,22.25,22.25,34569
2018-07-04,22.25,26.700000762939453,21.950000762939453,26.100000381469727,26.100000381469727,466788
2018-07-05,27.75,31.299999237060547,25.5,31.149999618530273,31.149999618530273,1296364
2018-07-06,31.299999237060547,32.95000076293945,28.399999618530273,31.75,31.75,626986
2018-07-09,32.45000076293945,34.0,31.549999237060547,32.04999923706055,32.04999923706055,317929
2018-07-10,31.100000381469727,31.850000381469727,30.100000381469727,31.149999618530273,31.149999618530273,107178
2018-07-11,31.100000381469727,31.100000381469727,28.5,29.850000381469727,29.850000381469727,160463
2018-07-12,29.0,30.899999618530273,28.149999618530273,28.649999618530273,28.649999618530273,267856
2018-07-13,28.049999237060547,28.950000762939453,26.399999618530273,26.700000762939453,26.700000762939453,178883
2018-07-16,26.700000762939453,27.299999237060547,25.25,26.25,26.25,85881
2018-07-17,26.0,27.700000762939453,26.0,26.200000762939453,26.200000762939453,155704
2018-07-18,26.049999237060547,26.899999618530273,24.5,24.700000762939453,24.700000762939453,236000
2018-07-19,24.700000762939453,25.25,23.399999618530273,24.200000762939453,24.200000762939453,131671
2018-07-20,24.25,24.899999618530273,23.5,23.75,23.75,32657
2018-07-23,23.799999237060547,25.700000762939453,23.799999237060547,25.299999237060547,25.299999237060547,26376
2018-07-24,24.75,26.0,24.75,25.299999237060547,25.299999237060547,53847
2018-07-25,25.299999237060547,26.100000381469727,24.799999237060547,25.0,25.0,202527
2018-07-26,25.0,25.450000762939453,22.649999618530273,22.899999618530273,22.899999618530273,337735
2018-07-27,23.100000381469727,24.5,23.0,23.75,23.75,58294
2018-07-30,23.799999237060547,24.799999237060547,23.799999237060547,24.350000381469727,24.350000381469727,34751
2018-07-31,24.5,25.600000381469727,24.149999618530273,24.850000381469727,24.850000381469727,77745
2018-08-01,24.799999237060547,27.299999237060547,24.600000381469727,26.450000762939453,26.450000762939453,408490
2018-08-02,26.549999237060547,27.25,24.25,26.100000381469727,26.100000381469727,668605
2018-08-03,26.600000381469727,27.200000762939453,26.0,26.25,26.25,389007
2018-08-06,26.899999618530273,28.299999237060547,26.600000381469727,27.950000762939453,27.950000762939453,131499
2018-08-07,28.049999237060547,29.200000762939453,26.600000381469727,26.799999237060547,26.799999237060547,291115
2018-08-08,26.799999237060547,28.450000762939453,26.700000762939453,27.0,27.0,139661
2018-08-09,27.0,27.100000381469727,26.350000381469727,26.799999237060547,26.799999237060547,32616
2018-08-10,26.700000762939453,28.0,26.549999237060547,26.799999237060547,26.799999237060547,67680
2018-08-13,26.0,27.700000762939453,26.0,27.149999618530273,27.149999618530273,86242
2018-08-14,27.149999618530273,28.399999618530273,27.049999237060547,27.899999618530273,27.899999618530273,158313
2018-08-16,27.649999618530273,29.75,27.350000381469727,28.75,28.75,183893
2018-08-17,28.950000762939453,30.299999237060547,27.0,29.25,29.25,682919
2018-08-20,29.600000381469727,29.600000381469727,28.600000381469727,29.350000381469727,29.350000381469727,59844
2018-08-21,29.0,30.299999237060547,28.850000381469727,29.25,29.25,734371
2018-08-23,29.0,29.600000381469727,27.700000762939453,28.5,28.5,97114
2018-08-24,28.25,28.450000762939453,26.899999618530273,27.350000381469727,27.350000381469727,593715
2018-08-27,27.200000762939453,28.0,26.600000381469727,26.899999618530273,26.899999618530273,319537
2018-08-28,27.0,27.0,26.299999237060547,26.799999237060547,26.799999237060547,123970
2018-08-29,26.850000381469727,26.850000381469727,26.399999618530273,26.5,26.5,14204
2018-08-30,26.399999618530273,26.799999237060547,25.799999237060547,26.100000381469727,26.100000381469727,227391
2018-08-31,26.100000381469727,26.75,26.100000381469727,26.25,26.25,20438
2018-09-03,26.950000762939453,28.25,26.0,26.149999618530273,26.149999618530273,616030
2018-09-04,26.149999618530273,26.549999237060547,25.700000762939453,25.950000762939453,25.950000762939453,113762
2018-09-05,25.649999618530273,26.399999618530273,25.399999618530273,26.100000381469727,26.100000381469727,28609
2018-09-06,26.100000381469727,29.0,26.100000381469727,27.850000381469727,27.850000381469727,418919
2018-09-07,28.0,29.0,27.5,27.75,27.75,1153226
2018-09-10,27.899999618530273,28.299999237060547,26.799999237060547,26.950000762939453,26.950000762939453,362317
2018-09-11,27.0,28.950000762939453,26.700000762939453,27.100000381469727,27.100000381469727,178523
2018-09-12,27.0,27.350000381469727,26.649999618530273,26.899999618530273,26.899999618530273,68053
2018-09-14,26.899999618530273,27.399999618530273,26.5,26.649999618530273,26.649999618530273,156447
2018-09-17,26.649999618530273,26.75,25.600000381469727,25.799999237060547,25.799999237060547,81929
2018-09-18,25.950000762939453,26.25,25.5,25.75,25.75,65431
2018-09-19,25.75,28.0,25.75,25.799999237060547,25.799999237060547,95211
2018-09-21,25.799999237060547,26.450000762939453,24.549999237060547,25.049999237060547,25.049999237060547,43774
2018-09-24,25.049999237060547,25.399999618530273,24.549999237060547,25.049999237060547,25.049999237060547,19347
2018-09-25,25.950000762939453,25.950000762939453,24.299999237060547,25.149999618530273,25.149999618530273,38426
2018-09-26,26.799999237060547,26.799999237060547,25.200000762939453,25.350000381469727,25.350000381469727,19911
2018-09-27,25.049999237060547,25.049999237060547,24.399999618530273,24.5,24.5,19762
2018-09-28,24.5,24.5,23.600000381469727,23.75,23.75,38205
2018-10-01,23.5,23.899999618530273,22.5,23.0,23.0,47744
2018-10-03,23.5,23.75,22.899999618530273,23.049999237060547,23.049999237060547,28317
2018-10-04,22.950000762939453,23.700000762939453,21.049999237060547,21.899999618530273,21.899999618530273,611874
2018-10-05,22.0,22.0,20.200000762939453,21.350000381469727,21.350000381469727,200529
2018-10-08,21.100000381469727,24.450000762939453,20.850000381469727,22.149999618530273,22.149999618530273,28617
2018-10-09,22.0,22.75,21.850000381469727,22.049999237060547,22.049999237060547,25664
2018-10-10,22.299999237060547,23.399999618530273,22.049999237060547,22.899999618530273,22.899999618530273,32589
2018-10-11,22.399999618530273,22.75,21.299999237060547,22.299999237060547,22.299999237060547,17573
2018-10-12,22.899999618530273,23.149999618530273,22.100000381469727,22.399999618530273,22.399999618530273,34987
2018-10-15,23.399999618530273,23.450000762939453,22.0,22.450000762939453,22.450000762939453,111609
2018-10-16,22.950000762939453,25.100000381469727,22.799999237060547,24.799999237060547,24.799999237060547,118101
2018-10-17,27.399999618530273,29.700000762939453,26.25,27.799999237060547,27.799999237060547,1013772
2018-10-19,27.850000381469727,29.399999618530273,27.5,28.549999237060547,28.549999237060547,386356
2018-10-22,29.0,29.299999237060547,27.799999237060547,28.0,28.0,84440
2018-10-23,28.0,28.0,27.0,27.299999237060547,27.299999237060547,40046
2018-10-24,27.299999237060547,27.950000762939453,26.649999618530273,27.100000381469727,27.100000381469727,38891
2018-10-25,26.100000381469727,27.0,25.75,26.0,26.0,19110
2018-10-26,25.75,27.299999237060547,25.5,26.549999237060547,26.549999237060547,22160
2018-10-29,25.5,27.850000381469727,25.5,27.700000762939453,27.700000762939453,79187
2018-10-30,27.700000762939453,28.5,27.549999237060547,27.899999618530273,27.899999618530273,44174
2018-10-31,27.700000762939453,28.700000762939453,27.549999237060547,28.5,28.5,30811
2018-11-01,28.5,29.5,27.549999237060547,28.5,28.5,57538
2018-11-02,27.5,29.899999618530273,27.5,29.149999618530273,29.149999618530273,88206
2018-11-05,30.600000381469727,30.600000381469727,29.700000762939453,30.600000381469727,30.600000381469727,139123
2018-11-06,32.099998474121094,32.099998474121094,31.100000381469727,32.099998474121094,32.099998474121094,94823
2018-11-07,33.70000076293945,33.70000076293945,32.70000076293945,33.45000076293945,33.45000076293945,150209
2018-11-09,33.45000076293945,35.099998474121094,32.099998474121094,33.599998474121094,33.599998474121094,152211
2018-11-12,34.75,34.75,31.950000762939453,31.950000762939453,31.950000762939453,101446
2018-11-13,30.799999237060547,33.0,30.75,31.799999237060547,31.799999237060547,90945
2018-11-14,31.75,32.5,31.200000762939453,31.950000762939453,31.950000762939453,53509
2018-11-15,32.099998474121094,32.70000076293945,31.799999237060547,32.04999923706055,32.04999923706055,16801
2018-11-16,31.299999237060547,32.25,31.0,31.200000762939453,31.200000762939453,50964
2018-11-19,31.700000762939453,31.799999237060547,30.700000762939453,30.850000381469727,30.850000381469727,25108
2018-11-20,30.850000381469727,31.450000762939453,29.350000381469727,29.799999237060547,29.799999237060547,13984
2018-11-21,29.5,30.549999237060547,28.799999237060547,29.200000762939453,29.200000762939453,13284
2018-11-22,29.100000381469727,30.100000381469727,29.100000381469727,29.899999618530273,29.899999618530273,9439
2018-11-26,29.899999618530273,30.5,29.149999618530273,29.5,29.5,16968
2018-11-27,29.5,30.799999237060547,28.5,28.850000381469727,28.850000381469727,11279
2018-11-28,28.850000381469727,29.0,28.5,28.649999618530273,28.649999618530273,19348
2018-11-29,28.649999618530273,29.5,27.799999237060547,28.25,28.25,28845
2018-11-30,28.0,29.649999618530273,28.0,29.200000762939453,29.200000762939453,61910
2018-12-03,28.100000381469727,30.5,28.100000381469727,30.100000381469727,30.100000381469727,24982
2018-12-04,29.0,30.600000381469727,29.0,29.549999237060547,29.549999237060547,26814
2018-12-05,29.299999237060547,30.0,29.0,29.149999618530273,29.149999618530273,5641
2018-12-06,29.149999618530273,29.5,28.850000381469727,29.200000762939453,29.200000762939453,21132
2018-12-07,28.5,30.25,28.5,29.100000381469727,29.100000381469727,16712
2018-12-10,28.399999618530273,28.5,27.75,28.100000381469727,28.100000381469727,9717
2018-12-11,28.0,29.100000381469727,27.799999237060547,28.850000381469727,28.850000381469727,17592
2018-12-12,28.049999237060547,29.0,28.049999237060547,28.899999618530273,28.899999618530273,3184
2018-12-13,27.799999237060547,29.950000762939453,27.799999237060547,29.100000381469727,29.100000381469727,11007
2018-12-14,28.100000381469727,29.75,28.100000381469727,28.700000762939453,28.700000762939453,14371
2018-12-17,28.299999237060547,30.100000381469727,28.299999237060547,29.75,29.75,33916
2018-12-18,29.0,30.350000381469727,29.0,30.100000381469727,30.100000381469727,17407
2018-12-19,30.25,30.25,29.049999237060547,29.149999618530273,29.149999618530273,46136
2018-12-20,29.899999618530273,30.600000381469727,29.5,30.5,30.5,70661
2018-12-21,31.5,32.0,29.299999237060547,29.649999618530273,29.649999618530273,40130
2018-12-24,28.700000762939453,30.100000381469727,28.700000762939453,29.600000381469727,29.600000381469727,16745
2018-12-26,29.0,30.100000381469727,28.799999237060547,28.799999237060547,28.799999237060547,49361
2018-12-27,28.799999237060547,30.100000381469727,28.399999618530273,28.850000381469727,28.850000381469727,11462
2018-12-28,28.549999237060547,30.049999237060547,28.549999237060547,29.950000762939453,29.950000762939453,24221
