Date,Open,High,Low,Close,Adj Close,Volume
2006-01-02,10.899999618530273,11.0,10.100000381469727,10.75,10.75,588141
2006-01-03,10.949999809265137,11.399999618530273,10.899999618530273,11.100000381469727,11.100000381469727,686965
2006-01-04,11.25,11.399999618530273,10.899999618530273,10.949999809265137,10.949999809265137,321890
2006-01-05,11.100000381469727,11.100000381469727,10.399999618530273,10.75,10.75,271970
2006-01-06,11.0,11.100000381469727,10.649999618530273,10.75,10.75,251741
2006-01-09,10.800000190734863,11.0,10.399999618530273,10.600000381469727,10.600000381469727,536578
2006-01-10,10.600000381469727,11.949999809265137,10.600000381469727,11.600000381469727,11.600000381469727,1182990
2006-01-12,12.0,12.0,11.399999618530273,11.649999618530273,11.649999618530273,1012587
2006-01-13,11.75,11.899999618530273,11.550000190734863,11.649999618530273,11.649999618530273,512947
2006-01-16,11.75,11.75,11.149999618530273,11.199999809265137,11.199999809265137,269990
2006-01-17,11.149999618530273,11.399999618530273,10.850000381469727,10.899999618530273,10.899999618530273,278839
2006-01-18,10.850000381469727,10.899999618530273,10.449999809265137,10.550000190734863,10.550000190734863,248728
2006-01-19,10.850000381469727,11.0,10.399999618530273,10.800000190734863,10.800000190734863,240334
2006-01-20,10.949999809265137,11.350000381469727,10.699999809265137,10.800000190734863,10.800000190734863,239895
2006-01-23,10.600000381469727,11.75,10.600000381469727,11.300000190734863,11.300000190734863,758690
2006-01-24,11.300000190734863,12.199999809265137,11.300000190734863,11.550000190734863,11.550000190734863,1627136
2006-01-25,11.699999809265137,11.699999809265137,10.800000190734863,10.850000381469727,10.850000381469727,493240
2006-01-27,10.850000381469727,11.25,10.699999809265137,10.800000190734863,10.800000190734863,361488
2006-01-30,11.0,11.050000190734863,10.5,10.649999618530273,10.649999618530273,404854
2006-01-31,10.699999809265137,10.850000381469727,10.5,10.5,10.5,339822
2006-02-01,10.5,10.600000381469727,10.199999809265137,10.25,10.25,260839
2006-02-02,10.25,10.5,10.100000381469727,10.149999618530273,10.149999618530273,308894
2006-02-03,10.149999618530273,10.25,10.0,10.149999618530273,10.149999618530273,349094
2006-02-06,10.199999809265137,10.449999809265137,10.100000381469727,10.25,10.25,177038
2006-02-07,10.25,10.449999809265137,10.050000190734863,10.149999618530273,10.149999618530273,237792
2006-02-08,10.199999809265137,10.399999618530273,10.0,10.149999618530273,10.149999618530273,351473
2006-02-10,10.399999618530273,10.399999618530273,10.100000381469727,10.149999618530273,10.149999618530273,180083
2006-02-13,10.199999809265137,10.5,10.100000381469727,10.300000190734863,10.300000190734863,303945
2006-02-14,10.5,11.0,10.25,10.350000381469727,10.350000381469727,519687
2006-02-15,10.449999809265137,10.5,10.199999809265137,10.25,10.25,151195
2006-02-16,10.25,10.75,10.199999809265137,10.300000190734863,10.300000190734863,334041
2006-02-17,10.5,10.5,10.100000381469727,10.199999809265137,10.199999809265137,284453
2006-02-20,10.199999809265137,10.25,10.0,10.0,10.0,358430
2006-02-21,10.050000190734863,10.300000190734863,10.0,10.0,10.0,285929
2006-02-22,10.0,10.550000190734863,9.949999809265137,10.050000190734863,10.050000190734863,490068
2006-02-23,10.050000190734863,10.149999618530273,9.899999618530273,9.949999809265137,9.949999809265137,212276
2006-02-24,10.0,10.100000381469727,9.899999618530273,10.0,10.0,204571
2006-02-27,10.050000190734863,10.199999809265137,10.0,10.050000190734863,10.050000190734863,203459
2006-02-28,10.050000190734863,10.199999809265137,9.899999618530273,10.0,10.0,327859
2006-03-01,10.199999809265137,10.300000190734863,9.949999809265137,10.0,10.0,299953
2006-03-02,10.050000190734863,10.149999618530273,9.899999618530273,9.949999809265137,9.949999809265137,360543
2006-03-03,9.899999618530273,10.050000190734863,9.800000190734863,9.850000381469727,9.850000381469727,205698
2006-03-06,9.850000381469727,10.0,9.75,9.800000190734863,9.800000190734863,245454
2006-03-07,9.800000190734863,10.199999809265137,9.75,9.949999809265137,9.949999809265137,532651
2006-03-08,9.949999809265137,10.100000381469727,9.75,10.0,10.0,296168
2006-03-09,10.0,10.050000190734863,9.850000381469727,10.0,10.0,360884
2006-03-10,9.899999618530273,10.100000381469727,9.899999618530273,10.0,10.0,363321
2006-03-13,9.899999618530273,10.050000190734863,9.899999618530273,10.0,10.0,448996
2006-03-14,10.0,10.050000190734863,9.850000381469727,9.899999618530273,9.899999618530273,349916
2006-03-16,9.899999618530273,10.0,9.75,9.949999809265137,9.949999809265137,404217
2006-03-17,9.899999618530273,10.0,9.600000381469727,9.850000381469727,9.850000381469727,452985
2006-03-20,9.949999809265137,10.300000190734863,9.649999618530273,9.699999809265137,9.699999809265137,264185
2006-03-21,9.800000190734863,9.800000190734863,9.600000381469727,9.75,9.75,412490
2006-03-22,9.649999618530273,9.800000190734863,9.399999618530273,9.600000381469727,9.600000381469727,562949
2006-03-23,9.600000381469727,9.75,9.5,9.699999809265137,9.699999809265137,276098
2006-03-24,9.699999809265137,9.800000190734863,9.300000190734863,9.350000381469727,9.350000381469727,376426
2006-03-27,9.350000381469727,9.449999809265137,9.149999618530273,9.149999618530273,9.149999618530273,340788
2006-03-28,9.199999809265137,9.25,9.0,9.0,9.0,421430
2006-03-29,9.050000190734863,9.050000190734863,8.75,8.800000190734863,8.800000190734863,329418
2006-03-30,9.0,9.100000381469727,8.800000190734863,9.0,9.0,246135
2006-03-31,9.0,9.5,8.949999809265137,9.449999809265137,9.449999809265137,301116
2006-04-03,9.699999809265137,10.199999809265137,9.600000381469727,10.050000190734863,10.050000190734863,436975
2006-04-04,10.199999809265137,11.199999809265137,10.050000190734863,10.699999809265137,10.699999809265137,1066646
2006-04-05,10.899999618530273,11.100000381469727,10.5,10.75,10.75,358805
2006-04-07,11.0,12.100000381469727,11.0,11.399999618530273,11.399999618530273,1902547
2006-04-10,11.399999618530273,11.949999809265137,11.399999618530273,11.899999618530273,11.899999618530273,689031
2006-04-12,12.5,12.5,11.25,11.300000190734863,11.300000190734863,762134
2006-04-13,11.649999618530273,12.050000190734863,11.050000190734863,11.800000190734863,11.800000190734863,837387
2006-04-17,11.800000190734863,12.100000381469727,11.600000381469727,11.699999809265137,11.699999809265137,334644
2006-04-18,11.899999618530273,12.149999618530273,11.699999809265137,11.949999809265137,11.949999809265137,731787
2006-04-19,12.100000381469727,12.100000381469727,11.649999618530273,11.75,11.75,301873
2006-04-20,11.850000381469727,12.0,11.550000190734863,11.75,11.75,319961
2006-04-21,11.949999809265137,11.949999809265137,11.399999618530273,11.449999809265137,11.449999809265137,265674
2006-04-24,11.899999618530273,12.149999618530273,11.300000190734863,11.5,11.5,815890
2006-04-25,12.5,13.800000190734863,12.5,13.800000190734863,13.800000190734863,3996626
2006-04-26,14.899999618530273,15.800000190734863,13.649999618530273,14.199999809265137,14.199999809265137,4289209
2006-04-27,14.75,14.75,13.399999618530273,13.5,13.5,1482293
2006-04-28,13.0,13.5,11.5,13.300000190734863,13.300000190734863,785357
2006-05-02,13.100000381469727,13.949999809265137,12.300000190734863,13.149999618530273,13.149999618530273,654979
2006-05-03,13.399999618530273,14.449999809265137,12.949999809265137,14.100000381469727,14.100000381469727,1411756
2006-05-04,14.399999618530273,14.399999618530273,13.800000190734863,13.899999618530273,13.899999618530273,926402
2006-05-05,14.149999618530273,14.149999618530273,13.5,13.699999809265137,13.699999809265137,513956
2006-05-08,14.100000381469727,14.25,13.550000190734863,13.649999618530273,13.649999618530273,337533
2006-05-09,13.899999618530273,13.899999618530273,13.399999618530273,13.649999618530273,13.649999618530273,365368
2006-05-10,13.649999618530273,13.800000190734863,13.0,13.699999809265137,13.699999809265137,453571
2006-05-11,13.699999809265137,13.850000381469727,13.100000381469727,13.199999809265137,13.199999809265137,442028
2006-05-12,13.199999809265137,13.399999618530273,13.0,13.100000381469727,13.100000381469727,391669
2006-05-15,13.0,13.5,12.550000190734863,12.649999618530273,12.649999618530273,429053
2006-05-16,12.550000190734863,12.699999809265137,11.949999809265137,12.5,12.5,561989
2006-05-17,12.75,13.050000190734863,12.5,12.850000381469727,12.850000381469727,249927
2006-05-18,12.5,12.649999618530273,12.0,12.050000190734863,12.050000190734863,377257
2006-05-19,12.100000381469727,12.5,11.5,11.550000190734863,11.550000190734863,478987
2006-05-22,11.0,11.5,9.25,10.300000190734863,10.300000190734863,729425
2006-05-23,9.550000190734863,11.600000381469727,9.550000190734863,11.300000190734863,11.300000190734863,229927
2006-05-24,12.300000190734863,13.600000381469727,11.600000381469727,12.399999618530273,12.399999618530273,795151
2006-05-25,12.149999618530273,12.800000190734863,11.699999809265137,11.850000381469727,11.850000381469727,321460
2006-05-26,12.199999809265137,12.800000190734863,12.050000190734863,12.350000381469727,12.350000381469727,284660
2006-05-29,12.600000381469727,12.850000381469727,11.800000190734863,11.949999809265137,11.949999809265137,218854
2006-05-30,12.399999618530273,12.399999618530273,11.800000190734863,11.899999618530273,11.899999618530273,170362
2006-05-31,11.800000190734863,11.800000190734863,11.0,11.199999809265137,11.199999809265137,310366
2006-06-01,10.899999618530273,11.5,10.899999618530273,11.050000190734863,11.050000190734863,157472
2006-06-02,11.5,11.699999809265137,10.5,11.0,11.0,273985
2006-06-05,10.800000190734863,11.199999809265137,10.649999618530273,10.949999809265137,10.949999809265137,437309
2006-06-06,10.550000190734863,10.949999809265137,10.5,10.850000381469727,10.850000381469727,158294
2006-06-07,10.300000190734863,10.949999809265137,9.899999618530273,10.25,10.25,313637
2006-06-08,10.100000381469727,10.100000381469727,9.100000381469727,9.899999618530273,9.899999618530273,293992
2006-06-09,9.199999809265137,10.350000381469727,9.199999809265137,10.199999809265137,10.199999809265137,224984
2006-06-12,10.199999809265137,10.399999618530273,9.800000190734863,9.949999809265137,9.949999809265137,80693
2006-06-13,9.5,9.800000190734863,9.25,9.399999618530273,9.399999618530273,187645
2006-06-14,9.199999809265137,9.699999809265137,9.0,9.050000190734863,9.050000190734863,193650
2006-06-15,9.399999618530273,9.600000381469727,9.199999809265137,9.5,9.5,106324
2006-06-16,9.5,10.199999809265137,9.5,9.850000381469727,9.850000381469727,143581
2006-06-19,9.800000190734863,9.949999809265137,9.149999618530273,9.899999618530273,9.899999618530273,95888
2006-06-20,9.899999618530273,10.100000381469727,9.550000190734863,9.949999809265137,9.949999809265137,92052
2006-06-21,10.0,10.600000381469727,9.899999618530273,10.350000381469727,10.350000381469727,162345
2006-06-22,10.649999618530273,11.0,10.449999809265137,10.550000190734863,10.550000190734863,187614
2006-06-23,9.050000190734863,10.5,9.050000190734863,10.350000381469727,10.350000381469727,114181
2006-06-26,10.699999809265137,10.699999809265137,9.850000381469727,9.949999809265137,9.949999809265137,80904
2006-06-27,10.0,10.399999618530273,9.5,9.850000381469727,9.850000381469727,102248
2006-06-28,9.550000190734863,9.949999809265137,9.550000190734863,9.850000381469727,9.850000381469727,46479
2006-06-29,9.800000190734863,10.100000381469727,9.75,9.899999618530273,9.899999618530273,76191
2006-06-30,10.100000381469727,10.899999618530273,9.949999809265137,10.550000190734863,10.550000190734863,682862
2006-07-03,10.75,10.850000381469727,10.100000381469727,10.149999618530273,10.149999618530273,96652
2006-07-04,10.100000381469727,10.449999809265137,9.800000190734863,9.949999809265137,9.949999809265137,233974
2006-07-05,9.949999809265137,10.100000381469727,9.899999618530273,10.050000190734863,10.050000190734863,51677
2006-07-06,9.75,10.050000190734863,9.75,9.949999809265137,9.949999809265137,49359
2006-07-07,10.050000190734863,10.050000190734863,9.850000381469727,9.899999618530273,9.899999618530273,80040
2006-07-10,9.649999618530273,9.949999809265137,9.649999618530273,9.800000190734863,9.800000190734863,120378
2006-07-11,9.699999809265137,9.899999618530273,9.649999618530273,9.75,9.75,72700
2006-07-12,9.25,10.050000190734863,9.25,10.0,10.0,116995
2006-07-13,9.699999809265137,9.949999809265137,9.699999809265137,9.75,9.75,48822
2006-07-14,9.5,9.850000381469727,9.399999618530273,9.550000190734863,9.550000190734863,198855
2006-07-17,9.550000190734863,9.699999809265137,9.300000190734863,9.350000381469727,9.350000381469727,118860
2006-07-18,9.25,9.5,8.600000381469727,8.800000190734863,8.800000190734863,393558
2006-07-19,8.600000381469727,9.100000381469727,8.600000381469727,8.850000381469727,8.850000381469727,462572
2006-07-20,8.550000190734863,9.449999809265137,8.550000190734863,9.350000381469727,9.350000381469727,340948
2006-07-21,9.350000381469727,9.350000381469727,9.350000381469727,9.350000381469727,9.350000381469727,0
2006-07-24,9.350000381469727,9.350000381469727,9.350000381469727,9.350000381469727,9.350000381469727,0
2006-07-25,9.350000381469727,9.350000381469727,9.350000381469727,9.350000381469727,9.350000381469727,0
2006-07-26,9.350000381469727,9.350000381469727,9.350000381469727,9.350000381469727,9.350000381469727,0
2006-07-27,9.350000381469727,9.350000381469727,9.350000381469727,9.350000381469727,9.350000381469727,0
2006-07-28,9.350000381469727,9.350000381469727,9.350000381469727,9.350000381469727,9.350000381469727,0
2006-07-31,9.350000381469727,9.350000381469727,9.350000381469727,9.350000381469727,9.350000381469727,0
2006-08-01,9.350000381469727,9.350000381469727,9.350000381469727,9.350000381469727,9.350000381469727,0
2006-08-02,9.350000381469727,9.350000381469727,9.350000381469727,9.350000381469727,9.350000381469727,0
2006-08-03,9.350000381469727,9.350000381469727,9.350000381469727,9.350000381469727,9.350000381469727,0
2006-08-04,9.350000381469727,9.350000381469727,9.350000381469727,9.350000381469727,9.350000381469727,0
2006-08-07,9.350000381469727,9.350000381469727,9.350000381469727,9.350000381469727,9.350000381469727,0
2006-08-08,9.350000381469727,9.350000381469727,9.350000381469727,9.350000381469727,9.350000381469727,0
2006-08-09,9.350000381469727,9.350000381469727,9.350000381469727,9.350000381469727,9.350000381469727,0
2006-08-10,9.350000381469727,9.350000381469727,9.350000381469727,9.350000381469727,9.350000381469727,0
2006-08-11,9.350000381469727,9.350000381469727,9.350000381469727,9.350000381469727,9.350000381469727,0
2006-08-14,9.350000381469727,9.350000381469727,9.350000381469727,9.350000381469727,9.350000381469727,0
2006-08-16,9.350000381469727,9.350000381469727,9.350000381469727,9.350000381469727,9.350000381469727,0
2006-08-17,9.350000381469727,9.350000381469727,9.350000381469727,9.350000381469727,9.350000381469727,0
2006-08-18,9.350000381469727,9.350000381469727,9.350000381469727,9.350000381469727,9.350000381469727,0
2006-08-21,9.350000381469727,9.350000381469727,9.350000381469727,9.350000381469727,9.350000381469727,0
2006-08-22,9.350000381469727,9.350000381469727,9.350000381469727,9.350000381469727,9.350000381469727,0
2006-08-23,9.350000381469727,9.350000381469727,9.350000381469727,9.350000381469727,9.350000381469727,0
2006-08-24,9.350000381469727,9.350000381469727,9.350000381469727,9.350000381469727,9.350000381469727,0
2006-08-25,9.350000381469727,9.350000381469727,9.350000381469727,9.350000381469727,9.350000381469727,0
2006-08-28,9.350000381469727,9.350000381469727,9.350000381469727,9.350000381469727,9.350000381469727,0
2006-08-29,9.350000381469727,9.350000381469727,9.350000381469727,9.350000381469727,9.350000381469727,0
2006-08-30,9.350000381469727,9.350000381469727,9.350000381469727,9.350000381469727,9.350000381469727,0
2006-08-31,9.350000381469727,9.350000381469727,9.350000381469727,9.350000381469727,9.350000381469727,0
2006-09-01,9.350000381469727,9.350000381469727,9.350000381469727,9.350000381469727,9.350000381469727,0
2006-09-04,9.350000381469727,9.350000381469727,9.350000381469727,9.350000381469727,9.350000381469727,0
2006-09-05,9.350000381469727,9.350000381469727,9.350000381469727,9.350000381469727,9.350000381469727,0
2006-09-06,9.350000381469727,9.350000381469727,9.350000381469727,9.350000381469727,9.350000381469727,0
2006-09-07,9.350000381469727,9.350000381469727,9.350000381469727,9.350000381469727,9.350000381469727,0
2006-09-08,9.350000381469727,9.350000381469727,9.350000381469727,9.350000381469727,9.350000381469727,0
2006-09-11,9.350000381469727,9.350000381469727,9.350000381469727,9.350000381469727,9.350000381469727,0
2006-09-12,9.350000381469727,9.350000381469727,9.350000381469727,9.350000381469727,9.350000381469727,0
2006-09-13,9.350000381469727,9.350000381469727,9.350000381469727,9.350000381469727,9.350000381469727,0
2006-09-14,9.350000381469727,9.350000381469727,9.350000381469727,9.350000381469727,9.350000381469727,0
2006-09-15,9.350000381469727,9.350000381469727,9.350000381469727,9.350000381469727,9.350000381469727,0
2006-09-18,9.350000381469727,9.350000381469727,9.350000381469727,9.350000381469727,9.350000381469727,0
2006-09-19,9.350000381469727,9.350000381469727,9.350000381469727,9.350000381469727,9.350000381469727,0
2006-09-20,11.25,11.25,11.25,11.25,11.25,6000
2006-09-21,13.5,13.5,13.5,13.5,13.5,3800
2006-09-22,16.200000762939453,16.200000762939453,16.200000762939453,16.200000762939453,16.200000762939453,18100
2006-09-25,19.450000762939453,19.450000762939453,19.450000762939453,19.450000762939453,19.450000762939453,17200
2006-09-26,23.350000381469727,23.350000381469727,23.350000381469727,23.350000381469727,23.350000381469727,15700
2006-09-27,28.049999237060547,28.049999237060547,28.049999237060547,28.049999237060547,28.049999237060547,7700
2006-09-28,33.70000076293945,33.70000076293945,33.70000076293945,33.70000076293945,33.70000076293945,8900
2006-09-29,40.45000076293945,40.45000076293945,40.400001525878906,40.45000076293945,40.45000076293945,64500
2006-10-03,46.400001525878906,48.54999923706055,42.0,48.54999923706055,48.54999923706055,1216600
2006-10-04,51.0,58.29999923706055,50.0,56.400001525878906,56.400001525878906,7368800
2006-10-05,53.5,58.20000076293945,51.599998474121094,53.04999923706055,53.04999923706055,3862300
2006-10-06,53.0,53.0,48.650001525878906,49.150001525878906,49.150001525878906,1510200
2006-10-09,46.099998474121094,49.70000076293945,43.04999923706055,47.150001525878906,47.150001525878906,741100
2006-10-10,47.0,55.29999923706055,45.54999923706055,53.849998474121094,53.849998474121094,4054500
2006-10-11,54.400001525878906,54.400001525878906,50.349998474121094,50.95000076293945,50.95000076293945,1125400
2006-10-12,51.5,52.5,50.75,51.900001525878906,51.900001525878906,557100
2006-10-13,52.5,53.0,51.25,51.5,51.5,662000
2006-10-16,52.5,53.5,50.29999923706055,50.599998474121094,50.599998474121094,508600
2006-10-17,48.04999923706055,50.0,47.900001525878906,48.349998474121094,48.349998474121094,268000
2006-10-18,48.650001525878906,48.650001525878906,46.0,46.54999923706055,46.54999923706055,271200
2006-10-19,46.29999923706055,47.5,46.0,46.349998474121094,46.349998474121094,172700
2006-10-20,47.0,47.349998474121094,46.29999923706055,46.45000076293945,46.45000076293945,70600
2006-10-23,46.0,46.70000076293945,45.04999923706055,45.400001525878906,45.400001525878906,91200
2006-10-26,45.900001525878906,46.95000076293945,45.25,45.849998474121094,45.849998474121094,81000
2006-10-27,45.900001525878906,46.0,45.099998474121094,45.400001525878906,45.400001525878906,74100
2006-10-30,45.0,46.20000076293945,44.04999923706055,45.75,45.75,103000
2006-10-31,46.900001525878906,46.900001525878906,44.70000076293945,45.150001525878906,45.150001525878906,112900
2006-11-01,46.0,47.0,44.29999923706055,45.650001525878906,45.650001525878906,81200
2006-11-02,45.349998474121094,46.45000076293945,45.0,45.45000076293945,45.45000076293945,61800
2006-11-03,44.79999923706055,46.29999923706055,44.79999923706055,45.45000076293945,45.45000076293945,101000
2006-11-06,45.45000076293945,45.95000076293945,45.0,45.04999923706055,45.04999923706055,46600
2006-11-07,45.099998474121094,46.75,44.5,44.95000076293945,44.95000076293945,119800
2006-11-08,44.099998474121094,45.400001525878906,43.75,44.0,44.0,58300
2006-11-09,43.75,44.79999923706055,43.75,44.0,44.0,44800
2006-11-10,43.79999923706055,44.400001525878906,42.25,43.54999923706055,43.54999923706055,70100
2006-11-13,44.0,44.5,43.150001525878906,43.400001525878906,43.400001525878906,76000
2006-11-14,35.04999923706055,44.0,35.04999923706055,42.70000076293945,42.70000076293945,39700
2006-11-15,42.150001525878906,42.70000076293945,42.0,42.25,42.25,66300
2006-11-16,42.29999923706055,44.0,41.099998474121094,42.29999923706055,42.29999923706055,73200
2006-11-17,41.54999923706055,42.900001525878906,40.75,41.20000076293945,41.20000076293945,54900
2006-11-20,42.0,42.0,39.45000076293945,40.45000076293945,40.45000076293945,40600
2006-11-21,33.25,41.5,33.25,40.75,40.75,46800
2006-11-22,40.70000076293945,44.0,40.599998474121094,41.79999923706055,41.79999923706055,103700
2006-11-23,41.70000076293945,42.5,41.5,41.849998474121094,41.849998474121094,45600
2006-11-24,42.79999923706055,42.79999923706055,41.25,42.20000076293945,42.20000076293945,35800
2006-11-27,42.54999923706055,43.54999923706055,41.75,43.04999923706055,43.04999923706055,88700
2006-11-28,42.900001525878906,44.70000076293945,41.29999923706055,42.70000076293945,42.70000076293945,102500
2006-11-29,43.70000076293945,43.900001525878906,42.25,42.650001525878906,42.650001525878906,59600
2006-11-30,42.04999923706055,42.5,41.79999923706055,41.900001525878906,41.900001525878906,38700
2006-12-01,42.650001525878906,43.79999923706055,40.79999923706055,42.150001525878906,42.150001525878906,96900
2006-12-04,41.70000076293945,42.400001525878906,41.25,41.45000076293945,41.45000076293945,35900
2006-12-05,41.900001525878906,42.25,41.20000076293945,41.45000076293945,41.45000076293945,50100
2006-12-06,41.20000076293945,41.75,40.5,40.650001525878906,40.650001525878906,47900
2006-12-07,40.650001525878906,41.650001525878906,40.04999923706055,40.5,40.5,39800
2006-12-08,40.5,40.849998474121094,40.04999923706055,40.25,40.25,38200
2006-12-11,40.0,40.0,38.54999923706055,39.5,39.5,54800
2006-12-12,39.5,40.0,37.900001525878906,39.599998474121094,39.599998474121094,161700
2006-12-13,37.5,39.95000076293945,37.5,39.75,39.75,26000
2006-12-14,40.70000076293945,40.70000076293945,39.5,39.75,39.75,21800
2006-12-15,40.0,41.0,39.599998474121094,39.95000076293945,39.95000076293945,92600
2006-12-18,40.0,40.25,39.5,39.79999923706055,39.79999923706055,27700
2006-12-19,40.25,40.25,39.150001525878906,39.54999923706055,39.54999923706055,34800
2006-12-20,39.5,39.849998474121094,39.0,39.400001525878906,39.400001525878906,51000
2006-12-21,39.04999923706055,39.400001525878906,38.79999923706055,39.0,39.0,43100
2006-12-22,38.75,40.0,38.54999923706055,38.95000076293945,38.95000076293945,33000
2006-12-26,39.0,42.849998474121094,39.0,41.849998474121094,41.849998474121094,131000
2006-12-27,42.0,42.900001525878906,41.0,42.04999923706055,42.04999923706055,119700
2006-12-28,42.95000076293945,46.5,42.25,43.849998474121094,43.849998474121094,543000
2006-12-29,44.5,44.5,42.25,42.70000076293945,42.70000076293945,101300
