Date,Open,High,Low,Close,Adj Close,Volume
2011-01-03,20.0,20.5,19.600000381469727,20.049999237060547,20.049999237060547,41563
2011-01-04,20.0,20.399999618530273,19.799999237060547,20.299999237060547,20.299999237060547,54055
2011-01-05,20.100000381469727,20.399999618530273,19.799999237060547,20.100000381469727,20.100000381469727,67826
2011-01-06,20.149999618530273,20.200000762939453,19.100000381469727,19.850000381469727,19.850000381469727,73798
2011-01-07,19.5,19.700000762939453,19.200000762939453,19.25,19.25,44281
2011-01-10,19.350000381469727,19.700000762939453,18.649999618530273,18.899999618530273,18.899999618530273,47714
2011-01-11,18.549999237060547,19.5,18.5,18.799999237060547,18.799999237060547,36638
2011-01-12,18.399999618530273,19.0,18.399999618530273,19.0,19.0,22473
2011-01-13,18.700000762939453,19.0,18.5,18.799999237060547,18.799999237060547,15423
2011-01-14,18.600000381469727,19.100000381469727,18.399999618530273,18.649999618530273,18.649999618530273,31105
2011-01-17,18.700000762939453,18.899999618530273,18.399999618530273,18.649999618530273,18.649999618530273,17950
2011-01-18,18.649999618530273,18.899999618530273,18.25,18.549999237060547,18.549999237060547,55918
2011-01-19,18.5,18.950000762939453,18.350000381469727,18.850000381469727,18.850000381469727,14737
2011-01-20,18.549999237060547,19.0,18.549999237060547,18.899999618530273,18.899999618530273,23644
2011-01-21,18.049999237060547,19.299999237060547,18.049999237060547,18.799999237060547,18.799999237060547,33417
2011-01-24,18.5,18.850000381469727,17.899999618530273,18.0,18.0,74445
2011-01-25,18.100000381469727,18.5,17.700000762939453,18.149999618530273,18.149999618530273,17736
2011-01-27,18.0,18.450000762939453,17.850000381469727,18.049999237060547,18.049999237060547,39061
2011-01-28,18.0,18.049999237060547,17.5,17.799999237060547,17.799999237060547,24289
2011-01-31,17.649999618530273,17.649999618530273,17.200000762939453,17.450000762939453,17.450000762939453,17224
2011-02-01,17.75,17.950000762939453,17.200000762939453,17.450000762939453,17.450000762939453,16878
2011-02-02,17.600000381469727,17.75,17.399999618530273,17.600000381469727,17.600000381469727,14823
2011-02-03,17.950000762939453,18.299999237060547,17.399999618530273,18.25,18.25,69718
2011-02-04,17.75,17.950000762939453,17.350000381469727,17.399999618530273,17.399999618530273,21773
2011-02-07,17.5,17.75,17.25,17.5,17.5,9214
2011-02-08,17.200000762939453,17.799999237060547,16.950000762939453,17.0,17.0,15512
2011-02-09,16.649999618530273,17.0,16.149999618530273,16.149999618530273,16.149999618530273,39251
2011-02-10,16.0,16.0,15.350000381469727,15.399999618530273,15.399999618530273,40978
2011-02-11,15.399999618530273,16.0,15.399999618530273,15.949999809265137,15.949999809265137,25219
2011-02-14,16.049999237060547,16.75,15.899999618530273,16.649999618530273,16.649999618530273,32221
2011-02-15,16.549999237060547,16.649999618530273,16.049999237060547,16.450000762939453,16.450000762939453,21837
2011-02-16,17.0,17.25,16.200000762939453,17.149999618530273,17.149999618530273,31095
2011-02-17,17.5,18.049999237060547,17.5,18.049999237060547,18.049999237060547,145676
2011-02-18,18.899999618530273,18.950000762939453,18.5,18.950000762939453,18.950000762939453,238136
2011-02-21,19.399999618530273,19.700000762939453,19.100000381469727,19.649999618530273,19.649999618530273,114162
2011-02-22,19.700000762939453,20.0,18.850000381469727,19.799999237060547,19.799999237060547,255863
2011-02-23,19.799999237060547,20.5,19.5,19.799999237060547,19.799999237060547,59861
2011-02-24,20.0,20.149999618530273,19.100000381469727,19.899999618530273,19.899999618530273,256880
2011-02-25,19.899999618530273,20.0,18.899999618530273,18.899999618530273,18.899999618530273,97069
2011-02-28,18.850000381469727,19.0,18.0,18.149999618530273,18.149999618530273,25512
2011-03-01,18.25,18.5,18.049999237060547,18.450000762939453,18.450000762939453,18880
2011-03-03,18.0,18.5,17.600000381469727,18.149999618530273,18.149999618530273,42616
2011-03-04,18.299999237060547,18.5,18.0,18.049999237060547,18.049999237060547,21646
2011-03-07,17.5,18.450000762939453,17.25,17.5,17.5,24825
2011-03-08,17.200000762939453,17.700000762939453,17.200000762939453,17.450000762939453,17.450000762939453,23321
2011-03-09,17.850000381469727,18.25,17.299999237060547,18.25,18.25,57620
2011-03-10,18.25,18.450000762939453,18.149999618530273,18.25,18.25,44551
2011-03-11,18.049999237060547,18.450000762939453,18.049999237060547,18.299999237060547,18.299999237060547,62812
2011-03-14,18.25,18.399999618530273,18.25,18.25,18.25,27572
2011-03-15,18.25,18.299999237060547,18.0,18.149999618530273,18.149999618530273,70264
2011-03-16,18.25,19.100000381469727,18.25,18.899999618530273,18.899999618530273,96682
2011-03-17,18.600000381469727,19.200000762939453,18.5,19.0,19.0,77341
2011-03-18,19.0,19.549999237060547,18.549999237060547,19.5,19.5,98151
2011-03-21,19.5,19.799999237060547,18.799999237060547,18.799999237060547,18.799999237060547,102421
2011-03-22,19.0,19.200000762939453,18.5,19.0,19.0,9160
2011-03-23,19.0,19.0,18.200000762939453,18.25,18.25,30243
2011-03-24,18.25,18.600000381469727,18.100000381469727,18.299999237060547,18.299999237060547,6222
2011-03-25,18.25,18.5,18.0,18.149999618530273,18.149999618530273,21055
2011-03-28,18.149999618530273,18.5,17.899999618530273,17.899999618530273,17.899999618530273,13065
2011-03-29,18.0,18.049999237060547,17.600000381469727,17.649999618530273,17.649999618530273,37174
2011-03-30,18.0,18.549999237060547,18.0,18.549999237060547,18.549999237060547,18054
2011-03-31,19.450000762939453,19.5,19.100000381469727,19.25,19.25,99756
2011-04-01,19.0,19.149999618530273,18.700000762939453,18.799999237060547,18.799999237060547,28581
2011-04-04,18.649999618530273,19.0,18.600000381469727,18.799999237060547,18.799999237060547,15804
2011-04-05,18.600000381469727,19.0,18.399999618530273,18.950000762939453,18.950000762939453,26939
2011-04-06,19.0,19.200000762939453,18.5,18.600000381469727,18.600000381469727,24773
2011-04-07,18.299999237060547,19.100000381469727,18.100000381469727,19.049999237060547,19.049999237060547,39575
2011-04-08,18.5,19.350000381469727,18.149999618530273,18.75,18.75,74439
2011-04-11,18.450000762939453,18.899999618530273,18.200000762939453,18.549999237060547,18.549999237060547,15046
2011-04-13,18.25,18.899999618530273,18.149999618530273,18.549999237060547,18.549999237060547,24108
2011-04-15,18.350000381469727,18.700000762939453,18.299999237060547,18.350000381469727,18.350000381469727,17682
2011-04-18,18.399999618530273,19.0,18.399999618530273,18.5,18.5,17398
2011-04-19,18.299999237060547,18.700000762939453,18.200000762939453,18.299999237060547,18.299999237060547,15882
2011-04-20,18.75,18.75,18.350000381469727,18.549999237060547,18.549999237060547,16749
2011-04-21,18.5,18.649999618530273,18.299999237060547,18.5,18.5,10508
2011-04-25,18.350000381469727,18.399999618530273,18.200000762939453,18.200000762939453,18.200000762939453,12625
2011-04-26,18.299999237060547,18.299999237060547,18.0,18.049999237060547,18.049999237060547,19166
2011-04-27,18.200000762939453,18.200000762939453,18.0,18.049999237060547,18.049999237060547,16201
2011-04-28,18.100000381469727,18.649999618530273,17.950000762939453,17.950000762939453,17.950000762939453,17689
2011-04-29,17.899999618530273,18.399999618530273,17.5,17.75,17.75,26028
2011-05-02,17.450000762939453,17.75,17.399999618530273,17.649999618530273,17.649999618530273,7074
2011-05-03,17.350000381469727,18.100000381469727,17.350000381469727,17.799999237060547,17.799999237060547,10499
2011-05-04,17.850000381469727,17.850000381469727,17.299999237060547,17.399999618530273,17.399999618530273,4071
2011-05-05,17.799999237060547,17.850000381469727,17.25,17.299999237060547,17.299999237060547,6622
2011-05-06,17.049999237060547,17.600000381469727,17.049999237060547,17.25,17.25,12530
2011-05-09,17.049999237060547,17.799999237060547,17.049999237060547,17.200000762939453,17.200000762939453,4063
2011-05-10,17.100000381469727,17.25,17.0,17.0,17.0,14432
2011-05-11,17.0,17.299999237060547,17.0,17.100000381469727,17.100000381469727,5490
2011-05-12,17.0,17.399999618530273,16.75,16.899999618530273,16.899999618530273,5635
2011-05-13,16.799999237060547,17.149999618530273,16.799999237060547,17.0,17.0,3903
2011-05-16,16.950000762939453,17.100000381469727,16.799999237060547,17.0,17.0,9594
2011-05-17,17.0,17.25,16.600000381469727,16.75,16.75,23729
2011-05-18,16.799999237060547,17.200000762939453,16.5,16.600000381469727,16.600000381469727,10581
2011-05-19,16.5,16.850000381469727,16.049999237060547,16.200000762939453,16.200000762939453,13691
2011-05-20,16.149999618530273,16.450000762939453,15.850000381469727,15.949999809265137,15.949999809265137,10467
2011-05-23,15.75,16.149999618530273,15.149999618530273,15.25,15.25,12795
2011-05-24,15.350000381469727,16.0,15.300000190734863,15.550000190734863,15.550000190734863,7016
2011-05-25,15.300000190734863,15.75,15.199999809265137,15.25,15.25,9125
2011-05-26,15.149999618530273,15.800000190734863,15.149999618530273,15.5,15.5,5480
2011-05-27,15.149999618530273,16.0,15.149999618530273,15.449999809265137,15.449999809265137,49418
2011-05-30,15.449999809265137,15.899999618530273,15.300000190734863,15.550000190734863,15.550000190734863,4989
2011-05-31,16.0,16.299999237060547,15.600000381469727,16.0,16.0,10334
2011-06-01,15.899999618530273,16.600000381469727,15.850000381469727,16.100000381469727,16.100000381469727,18632
2011-06-02,15.899999618530273,16.200000762939453,15.899999618530273,16.149999618530273,16.149999618530273,4098
2011-06-03,16.0,16.399999618530273,15.949999809265137,15.949999809265137,15.949999809265137,8201
2011-06-06,15.550000190734863,16.200000762939453,15.550000190734863,16.049999237060547,16.049999237060547,5932
2011-06-07,16.049999237060547,16.350000381469727,15.899999618530273,15.899999618530273,15.899999618530273,3751
2011-06-08,15.800000190734863,15.850000381469727,15.699999809265137,15.75,15.75,12450
2011-06-09,16.200000762939453,16.200000762939453,15.800000190734863,16.049999237060547,16.049999237060547,20851
2011-06-10,15.949999809265137,16.200000762939453,15.75,16.0,16.0,18728
2011-06-13,16.0,16.5,15.600000381469727,16.25,16.25,21477
2011-06-14,16.549999237060547,16.549999237060547,16.25,16.350000381469727,16.350000381469727,2922
2011-06-15,16.049999237060547,16.5,16.049999237060547,16.399999618530273,16.399999618530273,10874
2011-06-16,16.350000381469727,16.350000381469727,16.049999237060547,16.100000381469727,16.100000381469727,5219
2011-06-17,16.100000381469727,16.850000381469727,16.100000381469727,16.350000381469727,16.350000381469727,3303
2011-06-20,16.049999237060547,16.200000762939453,15.550000190734863,15.550000190734863,15.550000190734863,7296
2011-06-21,15.100000381469727,15.75,15.100000381469727,15.300000190734863,15.300000190734863,7008
2011-06-22,15.0,15.449999809265137,15.0,15.199999809265137,15.199999809265137,10670
2011-06-23,15.300000190734863,15.300000190734863,14.550000190734863,14.75,14.75,15364
2011-06-24,14.5,15.25,14.5,15.149999618530273,15.149999618530273,16149
2011-06-27,15.0,15.899999618530273,14.699999809265137,15.5,15.5,8422
2011-06-28,15.0,15.199999809265137,14.899999618530273,15.050000190734863,15.050000190734863,18082
2011-06-29,15.550000190734863,15.699999809265137,15.300000190734863,15.600000381469727,15.600000381469727,13693
2011-06-30,15.149999618530273,15.649999618530273,15.100000381469727,15.550000190734863,15.550000190734863,13176
2011-07-01,15.600000381469727,15.600000381469727,15.399999618530273,15.449999809265137,15.449999809265137,9432
2011-07-04,15.75,15.75,15.300000190734863,15.449999809265137,15.449999809265137,27307
2011-07-05,15.0,15.5,15.0,15.050000190734863,15.050000190734863,22215
2011-07-06,15.399999618530273,15.449999809265137,15.050000190734863,15.199999809265137,15.199999809265137,11731
2011-07-07,15.050000190734863,16.0,15.050000190734863,15.75,15.75,23804
2011-07-08,15.600000381469727,15.899999618530273,15.300000190734863,15.5,15.5,9736
2011-07-11,15.149999618530273,15.5,15.149999618530273,15.350000381469727,15.350000381469727,4405
2011-07-12,15.25,15.350000381469727,15.0,15.100000381469727,15.100000381469727,9612
2011-07-13,15.0,15.449999809265137,15.0,15.050000190734863,15.050000190734863,8132
2011-07-14,15.0,15.149999618530273,14.850000381469727,15.0,15.0,21024
2011-07-15,15.300000190734863,15.5,15.0,15.199999809265137,15.199999809265137,7087
2011-07-18,15.100000381469727,15.850000381469727,15.100000381469727,15.600000381469727,15.600000381469727,29228
2011-07-19,15.399999618530273,15.649999618530273,15.0,15.100000381469727,15.100000381469727,30753
2011-07-20,15.100000381469727,15.25,15.0,15.199999809265137,15.199999809265137,16007
2011-07-21,15.25,15.25,15.0,15.050000190734863,15.050000190734863,8020
2011-07-22,15.100000381469727,15.199999809265137,14.899999618530273,15.050000190734863,15.050000190734863,20220
2011-07-25,15.050000190734863,15.300000190734863,14.899999618530273,15.149999618530273,15.149999618530273,18333
2011-07-26,15.100000381469727,15.649999618530273,15.0,15.050000190734863,15.050000190734863,44129
2011-07-27,15.0,15.25,14.899999618530273,15.0,15.0,14173
2011-07-28,15.0,15.149999618530273,14.949999809265137,15.0,15.0,9509
2011-07-29,15.0,15.199999809265137,15.0,15.0,15.0,11595
2011-08-01,15.050000190734863,15.050000190734863,14.75,14.75,14.75,12256
2011-08-02,14.649999618530273,14.899999618530273,14.5,14.649999618530273,14.649999618530273,9528
2011-08-03,14.5,14.600000381469727,13.600000381469727,14.350000381469727,14.350000381469727,5843
2011-08-04,14.5,15.0,14.100000381469727,14.25,14.25,14594
2011-08-05,13.5,14.699999809265137,13.25,13.550000190734863,13.550000190734863,37381
2011-08-08,13.300000190734863,13.699999809265137,12.899999618530273,13.350000381469727,13.350000381469727,16079
2011-08-09,13.050000190734863,13.199999809265137,12.800000190734863,13.0,13.0,12681
2011-08-10,12.800000190734863,14.0,12.800000190734863,13.050000190734863,13.050000190734863,4675
2011-08-11,13.399999618530273,13.399999618530273,13.050000190734863,13.100000381469727,13.100000381469727,12994
2011-08-12,13.050000190734863,13.5,13.0,13.100000381469727,13.100000381469727,14648
2011-08-16,13.199999809265137,13.350000381469727,12.899999618530273,12.899999618530273,12.899999618530273,9607
2011-08-17,12.600000381469727,13.0,11.649999618530273,11.800000190734863,11.800000190734863,17886
2011-08-18,11.649999618530273,12.350000381469727,11.300000190734863,11.449999809265137,11.449999809265137,8824
2011-08-19,11.300000190734863,11.550000190734863,10.300000190734863,10.899999618530273,10.899999618530273,49034
2011-08-22,11.0,11.449999809265137,10.75,11.300000190734863,11.300000190734863,9416
2011-08-23,11.100000381469727,11.699999809265137,11.0,11.399999618530273,11.399999618530273,11801
2011-08-24,11.5,12.149999618530273,11.100000381469727,11.449999809265137,11.449999809265137,11796
2011-08-25,11.5,11.949999809265137,11.25,11.350000381469727,11.350000381469727,6642
2011-08-26,11.399999618530273,11.5,11.0,11.0,11.0,19005
2011-08-29,10.600000381469727,12.100000381469727,10.600000381469727,11.850000381469727,11.850000381469727,12736
2011-08-30,11.800000190734863,12.050000190734863,11.75,11.75,11.75,6611
2011-09-02,12.0,12.399999618530273,11.5,11.550000190734863,11.550000190734863,18283
2011-09-05,11.699999809265137,11.699999809265137,11.300000190734863,11.449999809265137,11.449999809265137,20343
2011-09-06,11.899999618530273,11.899999618530273,11.399999618530273,11.699999809265137,11.699999809265137,7314
2011-09-07,11.949999809265137,12.0,11.449999809265137,11.800000190734863,11.800000190734863,25605
2011-09-08,12.25,12.75,11.350000381469727,12.5,12.5,36495
2011-09-09,12.550000190734863,12.899999618530273,12.300000190734863,12.550000190734863,12.550000190734863,23843
2011-09-12,12.0,12.699999809265137,11.550000190734863,11.899999618530273,11.899999618530273,11601
2011-09-13,11.75,12.300000190734863,11.550000190734863,12.149999618530273,12.149999618530273,17380
2011-09-14,11.649999618530273,12.0,11.600000381469727,11.75,11.75,54387
2011-09-15,11.600000381469727,11.899999618530273,11.600000381469727,11.800000190734863,11.800000190734863,14911
2011-09-16,12.0,12.300000190734863,11.699999809265137,12.050000190734863,12.050000190734863,14122
2011-09-19,11.850000381469727,12.25,11.850000381469727,12.100000381469727,12.100000381469727,13625
2011-09-20,12.149999618530273,12.149999618530273,11.800000190734863,11.850000381469727,11.850000381469727,9706
2011-09-21,11.75,12.399999618530273,11.75,12.25,12.25,10167
2011-09-22,12.5,12.5,11.699999809265137,11.75,11.75,8478
2011-09-23,11.149999618530273,11.699999809265137,11.100000381469727,11.399999618530273,11.399999618530273,10179
2011-09-26,11.949999809265137,11.949999809265137,11.199999809265137,11.350000381469727,11.350000381469727,3492
2011-09-27,11.100000381469727,11.75,11.050000190734863,11.449999809265137,11.449999809265137,8306
2011-09-28,11.5,11.800000190734863,11.199999809265137,11.449999809265137,11.449999809265137,4823
2011-09-29,12.5,12.5,11.25,11.25,11.25,2153
2011-09-30,11.649999618530273,11.649999618530273,10.699999809265137,11.050000190734863,11.050000190734863,10475
2011-10-03,11.0,11.600000381469727,11.0,11.199999809265137,11.199999809265137,12198
2011-10-04,11.699999809265137,11.699999809265137,10.75,10.800000190734863,10.800000190734863,6243
2011-10-05,10.449999809265137,12.100000381469727,10.449999809265137,10.699999809265137,10.699999809265137,4455
2011-10-07,10.699999809265137,11.0,10.399999618530273,10.649999618530273,10.649999618530273,20982
2011-10-10,10.050000190734863,10.800000190734863,10.050000190734863,10.550000190734863,10.550000190734863,10855
2011-10-11,10.100000381469727,10.850000381469727,10.100000381469727,10.449999809265137,10.449999809265137,7775
2011-10-12,10.5,12.550000190734863,10.5,12.550000190734863,12.550000190734863,46497
2011-10-13,13.149999618530273,15.100000381469727,13.0,14.649999618530273,14.649999618530273,519461
2011-10-14,14.649999618530273,15.25,13.350000381469727,14.100000381469727,14.100000381469727,132426
2011-10-17,13.800000190734863,14.199999809265137,13.25,13.949999809265137,13.949999809265137,27560
2011-10-18,13.600000381469727,13.850000381469727,12.850000381469727,13.25,13.25,13667
2011-10-19,13.149999618530273,13.399999618530273,12.100000381469727,12.25,12.25,29370
2011-10-20,13.399999618530273,13.5,12.350000381469727,13.199999809265137,13.199999809265137,22165
2011-10-21,13.699999809265137,13.699999809265137,12.800000190734863,12.899999618530273,12.899999618530273,7842
2011-10-24,13.449999809265137,13.449999809265137,12.100000381469727,12.300000190734863,12.300000190734863,16911
2011-10-25,12.5,12.699999809265137,11.949999809265137,12.300000190734863,12.300000190734863,16445
2011-10-28,13.449999809265137,13.449999809265137,12.199999809265137,12.600000381469727,12.600000381469727,10830
2011-10-31,12.5,12.800000190734863,12.5,12.699999809265137,12.699999809265137,4050
2011-11-01,12.949999809265137,12.949999809265137,12.300000190734863,12.350000381469727,12.350000381469727,6782
2011-11-02,12.0,12.75,12.0,12.600000381469727,12.600000381469727,11838
2011-11-03,12.0,12.75,12.0,12.600000381469727,12.600000381469727,41197
2011-11-04,12.350000381469727,13.050000190734863,12.199999809265137,12.350000381469727,12.350000381469727,162635
2011-11-08,12.300000190734863,12.850000381469727,12.0,12.399999618530273,12.399999618530273,14110
2011-11-09,12.399999618530273,12.649999618530273,12.399999618530273,12.5,12.5,20398
2011-11-11,12.5,12.550000190734863,12.0,12.149999618530273,12.149999618530273,8776
2011-11-14,12.0,13.0,11.899999618530273,11.949999809265137,11.949999809265137,12922
2011-11-15,10.0,12.5,10.0,11.75,11.75,10250
2011-11-16,12.050000190734863,12.050000190734863,11.050000190734863,11.300000190734863,11.300000190734863,16423
2011-11-17,11.100000381469727,11.449999809265137,10.75,10.899999618530273,10.899999618530273,7071
2011-11-18,10.600000381469727,11.199999809265137,9.699999809265137,9.899999618530273,9.899999618530273,45762
2011-11-21,10.0,10.300000190734863,9.899999618530273,10.0,10.0,14840
2011-11-22,10.449999809265137,11.300000190734863,9.699999809265137,11.050000190734863,11.050000190734863,325400
2011-11-23,11.0,11.0,9.399999618530273,9.899999618530273,9.899999618530273,205597
2011-11-24,9.800000190734863,9.949999809265137,8.5,9.5,9.5,322461
2011-11-25,9.5,10.0,9.350000381469727,9.449999809265137,9.449999809265137,358488
2011-11-28,9.5,9.899999618530273,9.449999809265137,9.600000381469727,9.600000381469727,17778
2011-11-29,9.399999618530273,9.850000381469727,9.300000190734863,9.550000190734863,9.550000190734863,6054
2011-11-30,9.300000190734863,9.649999618530273,9.0,9.399999618530273,9.399999618530273,3569
2011-12-01,9.399999618530273,10.25,9.300000190734863,9.399999618530273,9.399999618530273,4959
2011-12-02,9.850000381469727,9.850000381469727,9.5,9.550000190734863,9.550000190734863,8679
2011-12-05,9.5,9.600000381469727,9.5,9.600000381469727,9.600000381469727,5284
2011-12-07,9.600000381469727,9.75,9.300000190734863,9.5,9.5,10846
2011-12-08,9.5,9.550000190734863,9.149999618530273,9.550000190734863,9.550000190734863,25207
2011-12-09,9.0,9.800000190734863,9.0,9.5,9.5,14574
2011-12-12,9.100000381469727,9.800000190734863,8.899999618530273,8.899999618530273,8.899999618530273,11782
2011-12-13,8.800000190734863,9.100000381469727,8.449999809265137,8.949999809265137,8.949999809265137,7588
2011-12-14,9.0,9.0,7.800000190734863,8.050000190734863,8.050000190734863,94154
2011-12-15,8.100000381469727,8.449999809265137,7.75,8.0,8.0,15061
2011-12-16,7.699999809265137,8.350000381469727,7.699999809265137,7.900000095367432,7.900000095367432,14862
2011-12-19,8.0,8.300000190734863,7.849999904632568,8.0,8.0,33094
2011-12-20,8.0,8.100000381469727,7.5,8.0,8.0,18988
2011-12-21,8.0,8.199999809265137,7.849999904632568,8.050000190734863,8.050000190734863,8138
2011-12-22,8.100000381469727,8.25,7.800000190734863,8.149999618530273,8.149999618530273,12614
2011-12-23,7.800000190734863,8.25,7.800000190734863,8.0,8.0,6827
2011-12-26,8.149999618530273,8.350000381469727,8.100000381469727,8.300000190734863,8.300000190734863,8583
2011-12-27,8.399999618530273,8.399999618530273,7.400000095367432,7.699999809265137,7.699999809265137,26160
2011-12-28,7.949999809265137,8.0,7.650000095367432,7.800000190734863,7.800000190734863,7819
2011-12-29,7.550000190734863,8.0,7.5,7.550000190734863,7.550000190734863,11180
2011-12-30,7.5,7.800000190734863,7.099999904632568,7.650000095367432,7.650000095367432,7797
