Date,Open,High,Low,Close,Adj Close,Volume
2015-01-01,7.400000095367432,7.5,7.199999809265137,7.349999904632568,7.349999904632568,44348
2015-01-02,7.599999904632568,7.900000095367432,7.199999809265137,7.5,7.5,48674
2015-01-05,7.5,7.849999904632568,7.349999904632568,7.5,7.5,55800
2015-01-06,7.550000190734863,7.550000190734863,7.150000095367432,7.150000095367432,7.150000095367432,79295
2015-01-07,7.25,7.25,7.0,7.099999904632568,7.099999904632568,14490
2015-01-08,7.25,7.449999809265137,7.199999809265137,7.300000190734863,7.300000190734863,26365
2015-01-09,7.5,7.550000190734863,7.199999809265137,7.349999904632568,7.349999904632568,10971
2015-01-12,7.5,7.5,7.099999904632568,7.25,7.25,12616
2015-01-13,7.300000190734863,7.400000095367432,7.199999809265137,7.199999809265137,7.199999809265137,7193
2015-01-14,7.400000095367432,7.800000190734863,7.199999809265137,7.550000190734863,7.550000190734863,30714
2015-01-15,7.900000095367432,7.900000095367432,7.349999904632568,7.550000190734863,7.550000190734863,12943
2015-01-16,7.800000190734863,7.800000190734863,7.25,7.300000190734863,7.300000190734863,18318
2015-01-19,7.199999809265137,7.699999809265137,7.099999904632568,7.400000095367432,7.400000095367432,24279
2015-01-20,7.199999809265137,7.449999809265137,7.099999904632568,7.400000095367432,7.400000095367432,20188
2015-01-21,7.300000190734863,7.699999809265137,7.300000190734863,7.599999904632568,7.599999904632568,47282
2015-01-22,7.5,7.75,7.449999809265137,7.5,7.5,41060
2015-01-23,7.5,7.699999809265137,7.300000190734863,7.300000190734863,7.300000190734863,52924
2015-01-27,7.349999904632568,7.599999904632568,7.199999809265137,7.25,7.25,57900
2015-01-28,7.099999904632568,7.449999809265137,7.0,7.150000095367432,7.150000095367432,65493
2015-01-29,7.050000190734863,7.349999904632568,6.900000095367432,7.0,7.0,33997
2015-01-30,7.0,7.099999904632568,7.0,7.0,7.0,17904
2015-02-02,7.150000095367432,7.349999904632568,7.050000190734863,7.050000190734863,7.050000190734863,9760
2015-02-03,7.0,7.5,6.900000095367432,7.150000095367432,7.150000095367432,56148
2015-02-04,7.099999904632568,7.099999904632568,6.849999904632568,6.949999809265137,6.949999809265137,59491
2015-02-05,7.0,7.0,6.75,6.75,6.75,36212
2015-02-06,6.699999809265137,6.949999809265137,6.599999904632568,6.599999904632568,6.599999904632568,10686
2015-02-09,6.650000095367432,6.800000190734863,6.349999904632568,6.400000095367432,6.400000095367432,24066
2015-02-10,6.449999809265137,6.650000095367432,6.349999904632568,6.349999904632568,6.349999904632568,5646
2015-02-11,6.650000095367432,6.650000095367432,6.449999809265137,6.449999809265137,6.449999809265137,7948
2015-02-12,6.300000190734863,7.650000095367432,6.300000190734863,6.599999904632568,6.599999904632568,11475
2015-02-13,6.650000095367432,6.900000095367432,6.599999904632568,6.650000095367432,6.650000095367432,8563
2015-02-16,7.5,7.5,6.699999809265137,6.699999809265137,6.699999809265137,8467
2015-02-18,6.550000190734863,6.849999904632568,6.550000190734863,6.699999809265137,6.699999809265137,4327
2015-02-19,6.800000190734863,6.900000095367432,6.699999809265137,6.800000190734863,6.800000190734863,14536
2015-02-20,6.800000190734863,7.0,6.699999809265137,6.800000190734863,6.800000190734863,16623
2015-02-23,6.75,6.949999809265137,6.550000190734863,6.75,6.75,21466
2015-02-24,6.75,6.800000190734863,6.650000095367432,6.650000095367432,6.650000095367432,40495
2015-02-25,6.550000190734863,6.75,6.400000095367432,6.5,6.5,12432
2015-02-26,6.800000190734863,6.800000190734863,6.300000190734863,6.349999904632568,6.349999904632568,3506
2015-02-27,6.449999809265137,6.699999809265137,6.25,6.550000190734863,6.550000190734863,17040
2015-03-02,6.300000190734863,7.550000190734863,6.25,7.199999809265137,7.199999809265137,716895
2015-03-03,7.5,7.5,7.099999904632568,7.099999904632568,7.099999904632568,63938
2015-03-04,7.099999904632568,7.199999809265137,6.800000190734863,7.099999904632568,7.099999904632568,58801
2015-03-05,7.400000095367432,7.400000095367432,6.849999904632568,6.949999809265137,6.949999809265137,57359
2015-03-09,7.150000095367432,7.150000095367432,6.599999904632568,6.75,6.75,34211
2015-03-10,7.400000095367432,7.400000095367432,6.5,6.849999904632568,6.849999904632568,23077
2015-03-11,6.949999809265137,7.0,6.599999904632568,6.699999809265137,6.699999809265137,37839
2015-03-12,6.849999904632568,7.0,6.300000190734863,6.349999904632568,6.349999904632568,188372
2015-03-13,6.25,6.5,6.0,6.349999904632568,6.349999904632568,47505
2015-03-16,6.300000190734863,6.5,6.150000095367432,6.25,6.25,30535
2015-03-17,6.5,6.5,5.949999809265137,5.949999809265137,5.949999809265137,150429
2015-03-18,6.25,6.349999904632568,5.949999809265137,6.0,6.0,71938
2015-03-19,6.199999809265137,6.199999809265137,6.050000190734863,6.150000095367432,6.150000095367432,27289
2015-03-20,6.300000190734863,6.300000190734863,5.949999809265137,6.0,6.0,47044
2015-03-23,6.349999904632568,6.349999904632568,5.650000095367432,5.800000190734863,5.800000190734863,44948
2015-03-24,6.0,6.0,5.599999904632568,5.900000095367432,5.900000095367432,26352
2015-03-25,6.0,6.099999904632568,5.650000095367432,6.0,6.0,108203
2015-03-26,5.75,5.949999809265137,5.599999904632568,5.699999809265137,5.699999809265137,86547
2015-03-27,5.949999809265137,5.949999809265137,5.400000095367432,5.75,5.75,83924
2015-03-30,6.0,6.0,5.650000095367432,5.949999809265137,5.949999809265137,44314
2015-03-31,5.699999809265137,6.050000190734863,5.650000095367432,5.900000095367432,5.900000095367432,23052
2015-04-01,5.800000190734863,6.199999809265137,5.800000190734863,6.150000095367432,6.150000095367432,34842
2015-04-06,6.25,7.199999809265137,6.150000095367432,6.75,6.75,251653
2015-04-07,6.949999809265137,6.949999809265137,6.650000095367432,6.800000190734863,6.800000190734863,46681
2015-04-08,6.650000095367432,6.800000190734863,6.650000095367432,6.699999809265137,6.699999809265137,35165
2015-04-09,6.599999904632568,6.75,6.400000095367432,6.599999904632568,6.599999904632568,26383
2015-04-10,6.900000095367432,7.0,6.650000095367432,6.849999904632568,6.849999904632568,70915
2015-04-13,7.150000095367432,7.449999809265137,6.900000095367432,7.199999809265137,7.199999809265137,153442
2015-04-15,7.300000190734863,7.75,7.25,7.349999904632568,7.349999904632568,226269
2015-04-16,7.849999904632568,8.449999809265137,7.550000190734863,8.300000190734863,8.300000190734863,225212
2015-04-17,8.399999618530273,8.5,7.900000095367432,8.149999618530273,8.149999618530273,96233
2015-04-20,8.25,8.25,7.599999904632568,7.900000095367432,7.900000095367432,69848
2015-04-21,7.800000190734863,8.199999809265137,7.699999809265137,8.0,8.0,48223
2015-04-22,8.300000190734863,8.300000190734863,7.75,7.949999809265137,7.949999809265137,8617
2015-04-23,8.149999618530273,8.149999618530273,7.699999809265137,7.949999809265137,7.949999809265137,11195
2015-04-24,8.149999618530273,8.149999618530273,7.400000095367432,7.599999904632568,7.599999904632568,33817
2015-04-27,8.050000190734863,8.850000381469727,7.699999809265137,7.800000190734863,7.800000190734863,82791
2015-04-28,7.650000095367432,8.300000190734863,7.650000095367432,8.25,8.25,46163
2015-04-29,8.199999809265137,8.75,8.199999809265137,8.449999809265137,8.449999809265137,50890
2015-04-30,8.300000190734863,8.899999618530273,8.25,8.5,8.5,81083
2015-05-04,8.100000381469727,8.949999809265137,8.100000381469727,8.600000381469727,8.600000381469727,58611
2015-05-05,8.949999809265137,8.949999809265137,7.650000095367432,8.699999809265137,8.699999809265137,42722
2015-05-06,8.949999809265137,8.949999809265137,8.25,8.399999618530273,8.399999618530273,36043
2015-05-07,8.25,8.350000381469727,7.800000190734863,7.900000095367432,7.900000095367432,60571
2015-05-08,7.849999904632568,8.0,7.400000095367432,7.5,7.5,17786
2015-05-11,7.300000190734863,8.300000190734863,7.199999809265137,7.599999904632568,7.599999904632568,21792
2015-05-12,7.400000095367432,7.75,7.400000095367432,7.599999904632568,7.599999904632568,15402
2015-05-13,7.75,7.75,7.550000190734863,7.550000190734863,7.550000190734863,4900
2015-05-14,7.599999904632568,7.800000190734863,7.5,7.550000190734863,7.550000190734863,23771
2015-05-15,7.300000190734863,7.699999809265137,7.300000190734863,7.650000095367432,7.650000095367432,23204
2015-05-18,7.650000095367432,8.850000381469727,7.650000095367432,8.350000381469727,8.350000381469727,137364
2015-05-19,8.350000381469727,8.899999618530273,8.350000381469727,8.649999618530273,8.649999618530273,78075
2015-05-20,8.800000190734863,9.449999809265137,8.449999809265137,8.649999618530273,8.649999618530273,36899
2015-05-21,8.850000381469727,9.5,8.75,9.449999809265137,9.449999809265137,146590
2015-05-22,9.899999618530273,10.050000190734863,9.449999809265137,9.5,9.5,295540
2015-05-25,9.75,9.800000190734863,9.25,9.600000381469727,9.600000381469727,287950
2015-05-26,9.300000190734863,9.699999809265137,9.300000190734863,9.600000381469727,9.600000381469727,100278
2015-05-27,9.5,9.600000381469727,9.5,9.550000190734863,9.550000190734863,75537
2015-05-28,9.75,9.850000381469727,9.5,9.75,9.75,165913
2015-05-29,9.800000190734863,9.800000190734863,9.600000381469727,9.600000381469727,9.600000381469727,43848
2015-06-01,10.0,10.350000381469727,9.600000381469727,10.149999618530273,10.149999618530273,127302
2015-06-02,9.949999809265137,10.5,9.949999809265137,10.050000190734863,10.050000190734863,55535
2015-06-03,9.899999618530273,10.300000190734863,9.399999618530273,9.699999809265137,9.699999809265137,213399
2015-06-04,10.100000381469727,10.100000381469727,9.649999618530273,10.0,10.0,110701
2015-06-05,9.899999618530273,10.0,9.75,9.75,9.75,39426
2015-06-08,9.699999809265137,9.699999809265137,9.649999618530273,9.649999618530273,9.649999618530273,12782
2015-06-09,9.699999809265137,9.949999809265137,9.649999618530273,9.699999809265137,9.699999809265137,22734
2015-06-10,9.649999618530273,9.949999809265137,9.649999618530273,9.800000190734863,9.800000190734863,64823
2015-06-11,9.699999809265137,9.800000190734863,9.699999809265137,9.699999809265137,9.699999809265137,44396
2015-06-12,9.649999618530273,9.699999809265137,9.649999618530273,9.649999618530273,9.649999618530273,25490
2015-06-15,9.600000381469727,9.699999809265137,9.600000381469727,9.699999809265137,9.699999809265137,17420
2015-06-16,9.649999618530273,9.699999809265137,9.600000381469727,9.649999618530273,9.649999618530273,60443
2015-06-17,9.699999809265137,9.800000190734863,9.649999618530273,9.699999809265137,9.699999809265137,4826
2015-06-18,9.649999618530273,9.699999809265137,9.649999618530273,9.649999618530273,9.649999618530273,24100
2015-06-19,9.75,9.800000190734863,9.649999618530273,9.649999618530273,9.649999618530273,62452
2015-06-22,9.649999618530273,9.800000190734863,9.649999618530273,9.75,9.75,25559
2015-06-23,9.649999618530273,9.75,9.649999618530273,9.699999809265137,9.699999809265137,12885
2015-06-24,9.75,9.949999809265137,9.649999618530273,9.649999618530273,9.649999618530273,98129
2015-06-25,9.649999618530273,9.75,9.649999618530273,9.699999809265137,9.699999809265137,64275
2015-06-26,9.800000190734863,9.800000190734863,9.649999618530273,9.699999809265137,9.699999809265137,16617
2015-06-29,9.600000381469727,9.699999809265137,9.600000381469727,9.699999809265137,9.699999809265137,33896
2015-06-30,9.649999618530273,9.75,9.649999618530273,9.699999809265137,9.699999809265137,8785
2015-07-01,9.800000190734863,10.0,9.75,9.75,9.75,30790
2015-07-02,9.850000381469727,9.949999809265137,9.550000190734863,9.800000190734863,9.800000190734863,5280
2015-07-03,9.75,9.899999618530273,9.600000381469727,9.699999809265137,9.699999809265137,28309
2015-07-06,9.649999618530273,10.25,9.649999618530273,10.149999618530273,10.149999618530273,118615
2015-07-07,10.149999618530273,10.5,10.0,10.050000190734863,10.050000190734863,47780
2015-07-08,10.050000190734863,10.649999618530273,10.050000190734863,10.550000190734863,10.550000190734863,93103
2015-07-09,10.649999618530273,12.649999618530273,10.5,12.5,12.5,580225
2015-07-10,12.600000381469727,12.75,11.199999809265137,12.0,12.0,246015
2015-07-13,12.0,12.800000190734863,11.75,12.100000381469727,12.100000381469727,81380
2015-07-14,11.949999809265137,12.300000190734863,11.050000190734863,11.350000381469727,11.350000381469727,50784
2015-07-15,11.199999809265137,11.699999809265137,10.5,10.699999809265137,10.699999809265137,58917
2015-07-16,10.699999809265137,10.800000190734863,10.5,10.550000190734863,10.550000190734863,17181
2015-07-17,10.5,11.699999809265137,10.149999618530273,11.0,11.0,50990
2015-07-20,11.050000190734863,11.350000381469727,10.75,11.149999618530273,11.149999618530273,20323
2015-07-21,10.899999618530273,11.199999809265137,10.5,11.0,11.0,38592
2015-07-22,11.0,11.25,10.649999618530273,10.800000190734863,10.800000190734863,21377
2015-07-23,10.800000190734863,11.449999809265137,10.699999809265137,11.199999809265137,11.199999809265137,58528
2015-07-24,11.100000381469727,13.199999809265137,11.100000381469727,12.300000190734863,12.300000190734863,257865
2015-07-27,12.300000190734863,12.449999809265137,11.800000190734863,12.0,12.0,115129
2015-07-28,11.899999618530273,12.25,11.800000190734863,12.050000190734863,12.050000190734863,20135
2015-07-29,12.0,13.75,11.699999809265137,13.0,13.0,152523
2015-07-30,13.25,14.949999809265137,12.199999809265137,14.550000190734863,14.550000190734863,306593
2015-07-31,14.899999618530273,15.0,13.449999809265137,13.699999809265137,13.699999809265137,92744
2015-08-03,13.699999809265137,14.899999618530273,13.699999809265137,13.899999618530273,13.899999618530273,98242
2015-08-04,14.399999618530273,14.399999618530273,13.75,13.949999809265137,13.949999809265137,63869
2015-08-05,13.449999809265137,14.600000381469727,13.449999809265137,13.850000381469727,13.850000381469727,77952
2015-08-06,13.899999618530273,14.399999618530273,13.699999809265137,13.899999618530273,13.899999618530273,51508
2015-08-07,14.0,14.100000381469727,13.25,13.649999618530273,13.649999618530273,30326
2015-08-10,13.5,13.550000190734863,13.25,13.399999618530273,13.399999618530273,25665
2015-08-11,13.5,13.649999618530273,12.25,12.399999618530273,12.399999618530273,56920
2015-08-12,13.0,13.350000381469727,12.149999618530273,12.899999618530273,12.899999618530273,67957
2015-08-13,13.050000190734863,13.5,12.550000190734863,12.550000190734863,12.550000190734863,126752
2015-08-14,12.5,12.949999809265137,11.699999809265137,12.649999618530273,12.649999618530273,39887
2015-08-17,12.5,13.149999618530273,12.399999618530273,12.949999809265137,12.949999809265137,23301
2015-08-18,13.0,13.399999618530273,12.75,13.050000190734863,13.050000190734863,50986
2015-08-19,12.800000190734863,13.699999809265137,12.600000381469727,12.850000381469727,12.850000381469727,63339
2015-08-20,12.800000190734863,12.800000190734863,12.300000190734863,12.399999618530273,12.399999618530273,24494
2015-08-21,12.100000381469727,12.5,11.800000190734863,12.300000190734863,12.300000190734863,33614
2015-08-24,12.0,12.0,10.75,11.449999809265137,11.449999809265137,102114
2015-08-25,11.149999618530273,11.800000190734863,11.100000381469727,11.649999618530273,11.649999618530273,43895
2015-08-26,11.25,11.800000190734863,10.600000381469727,11.5,11.5,75370
2015-08-27,11.850000381469727,12.25,11.75,11.800000190734863,11.800000190734863,37471
2015-08-28,12.149999618530273,12.949999809265137,12.0,12.75,12.75,65662
2015-08-31,12.850000381469727,13.0,12.199999809265137,12.75,12.75,44043
2015-09-01,12.5,13.300000190734863,12.149999618530273,12.399999618530273,12.399999618530273,37100
2015-09-02,12.300000190734863,12.699999809265137,11.600000381469727,11.75,11.75,17842
2015-09-03,11.5,12.25,11.5,11.649999618530273,11.649999618530273,17918
2015-09-04,11.5,11.800000190734863,10.899999618530273,11.100000381469727,11.100000381469727,32043
2015-09-07,11.0,11.0,10.0,10.199999809265137,10.199999809265137,44358
2015-09-08,10.0,10.300000190734863,9.649999618530273,10.199999809265137,10.199999809265137,22469
2015-09-09,10.649999618530273,10.800000190734863,10.25,10.350000381469727,10.350000381469727,22732
2015-09-10,10.0,10.75,10.0,10.75,10.75,8867
2015-09-11,10.5,10.649999618530273,10.199999809265137,10.600000381469727,10.600000381469727,12703
2015-09-14,10.550000190734863,10.850000381469727,10.550000190734863,10.649999618530273,10.649999618530273,3440
2015-09-15,10.5,10.600000381469727,10.350000381469727,10.350000381469727,10.350000381469727,5632
2015-09-16,10.399999618530273,10.600000381469727,10.399999618530273,10.449999809265137,10.449999809265137,1837
2015-09-18,10.199999809265137,10.699999809265137,10.050000190734863,10.399999618530273,10.399999618530273,3659
2015-09-21,10.399999618530273,10.75,10.100000381469727,10.350000381469727,10.350000381469727,10782
2015-09-22,10.5,10.800000190734863,10.25,10.5,10.5,24650
2015-09-23,10.25,10.699999809265137,10.25,10.550000190734863,10.550000190734863,5656
2015-09-24,10.550000190734863,10.550000190734863,10.399999618530273,10.550000190734863,10.550000190734863,2255
2015-09-28,10.899999618530273,11.25,10.899999618530273,11.050000190734863,11.050000190734863,28476
2015-09-29,11.300000190734863,11.300000190734863,10.649999618530273,10.949999809265137,10.949999809265137,13428
2015-09-30,10.899999618530273,10.899999618530273,10.5,10.649999618530273,10.649999618530273,25494
2015-10-01,11.0,11.300000190734863,10.649999618530273,10.75,10.75,12312
2015-10-05,10.600000381469727,11.350000381469727,10.300000190734863,11.25,11.25,17862
2015-10-06,11.399999618530273,11.449999809265137,10.899999618530273,10.949999809265137,10.949999809265137,26776
2015-10-07,11.050000190734863,11.199999809265137,10.800000190734863,11.050000190734863,11.050000190734863,21573
2015-10-08,10.899999618530273,11.5,10.899999618530273,11.25,11.25,18431
2015-10-09,11.699999809265137,11.699999809265137,11.050000190734863,11.149999618530273,11.149999618530273,18093
2015-10-12,10.899999618530273,11.649999618530273,10.850000381469727,11.399999618530273,11.399999618530273,7544
2015-10-13,11.899999618530273,11.899999618530273,11.050000190734863,11.649999618530273,11.649999618530273,17080
2015-10-14,11.399999618530273,11.649999618530273,11.199999809265137,11.5,11.5,9780
2015-10-15,11.800000190734863,11.949999809265137,11.399999618530273,11.449999809265137,11.449999809265137,33146
2015-10-16,11.300000190734863,12.0,11.300000190734863,12.0,12.0,18116
2015-10-19,12.300000190734863,14.25,12.050000190734863,14.25,14.25,305367
2015-10-20,14.949999809265137,15.75,13.5,14.949999809265137,14.949999809265137,350250
2015-10-21,15.5,15.5,14.25,14.300000190734863,14.300000190734863,58525
2015-10-23,14.050000190734863,14.899999618530273,11.75,13.699999809265137,13.699999809265137,98891
2015-10-26,13.550000190734863,14.25,13.25,13.300000190734863,13.300000190734863,24784
2015-10-27,13.100000381469727,14.5,13.100000381469727,13.149999618530273,13.149999618530273,15403
2015-10-28,13.25,13.350000381469727,12.600000381469727,12.850000381469727,12.850000381469727,19909
2015-10-29,12.800000190734863,13.949999809265137,12.800000190734863,13.199999809265137,13.199999809265137,22699
2015-10-30,13.899999618530273,13.949999809265137,12.75,12.850000381469727,12.850000381469727,41420
2015-11-02,13.800000190734863,13.800000190734863,12.149999618530273,12.399999618530273,12.399999618530273,33752
2015-11-03,12.5,12.850000381469727,12.0,12.25,12.25,10158
2015-11-04,12.199999809265137,12.75,11.899999618530273,12.050000190734863,12.050000190734863,50384
2015-11-05,12.600000381469727,12.699999809265137,12.050000190734863,12.600000381469727,12.600000381469727,23258
2015-11-06,13.75,13.75,12.399999618530273,12.850000381469727,12.850000381469727,24410
2015-11-09,12.699999809265137,12.699999809265137,12.350000381469727,12.550000190734863,12.550000190734863,7975
2015-11-10,12.300000190734863,12.949999809265137,12.149999618530273,12.199999809265137,12.199999809265137,5839
2015-11-13,12.199999809265137,12.949999809265137,12.199999809265137,12.699999809265137,12.699999809265137,5093
2015-11-16,12.5,14.600000381469727,12.5,14.199999809265137,14.199999809265137,48218
2015-11-17,14.25,14.550000190734863,13.75,13.949999809265137,13.949999809265137,33362
2015-11-18,13.899999618530273,14.300000190734863,13.149999618530273,13.300000190734863,13.300000190734863,34502
2015-11-19,13.199999809265137,14.0,13.149999618530273,13.550000190734863,13.550000190734863,23819
2015-11-20,13.600000381469727,15.199999809265137,13.600000381469727,14.149999618530273,14.149999618530273,246559
2015-11-23,15.0,15.0,13.5,14.149999618530273,14.149999618530273,48679
2015-11-24,13.899999618530273,14.800000190734863,13.399999618530273,14.350000381469727,14.350000381469727,59588
2015-11-26,14.25,14.800000190734863,13.949999809265137,14.149999618530273,14.149999618530273,55562
2015-11-27,13.550000190734863,14.850000381469727,13.550000190734863,14.5,14.5,66292
2015-11-30,13.899999618530273,14.899999618530273,13.899999618530273,14.449999809265137,14.449999809265137,35325
2015-12-01,13.850000381469727,17.149999618530273,13.850000381469727,16.700000762939453,16.700000762939453,1072424
2015-12-02,16.799999237060547,17.299999237060547,15.350000381469727,15.800000190734863,15.800000190734863,242546
2015-12-03,15.699999809265137,18.399999618530273,15.600000381469727,17.25,17.25,423991
2015-12-04,17.399999618530273,18.850000381469727,16.899999618530273,18.350000381469727,18.350000381469727,352000
2015-12-07,18.25,19.299999237060547,18.0,18.649999618530273,18.649999618530273,452746
2015-12-08,18.75,20.5,15.649999618530273,18.899999618530273,18.899999618530273,580235
2015-12-09,19.0,20.5,18.0,18.25,18.25,324620
2015-12-10,18.0,19.700000762939453,18.0,19.5,19.5,141977
2015-12-11,19.850000381469727,21.600000381469727,18.049999237060547,20.649999618530273,20.649999618530273,601435
2015-12-14,21.399999618530273,22.100000381469727,20.600000381469727,21.450000762939453,21.450000762939453,373366
2015-12-15,21.450000762939453,22.600000381469727,21.100000381469727,21.799999237060547,21.799999237060547,313964
2015-12-16,21.5,26.149999618530273,21.5,26.149999618530273,26.149999618530273,1345833
2015-12-17,28.25,28.75,27.049999237060547,28.75,28.75,1420901
2015-12-18,28.899999618530273,31.600000381469727,28.899999618530273,31.600000381469727,31.600000381469727,1104241
2015-12-21,34.400001525878906,34.75,31.049999237060547,33.0,33.0,1594535
2015-12-22,33.29999923706055,33.29999923706055,31.350000381469727,31.350000381469727,31.350000381469727,117082
2015-12-23,29.799999237060547,30.5,29.799999237060547,29.799999237060547,29.799999237060547,103170
2015-12-24,28.850000381469727,29.700000762939453,28.350000381469727,28.350000381469727,28.350000381469727,1182194
2015-12-28,27.299999237060547,28.25,26.950000762939453,26.950000762939453,26.950000762939453,509992
2015-12-29,26.049999237060547,26.200000762939453,25.649999618530273,25.649999618530273,25.649999618530273,231229
2015-12-30,24.899999618530273,26.600000381469727,24.5,24.700000762939453,24.700000762939453,785188
