Date,Open,High,Low,Close,Adj Close,Volume
2017-01-02,34.650001525878906,36.20000076293945,34.650001525878906,35.29999923706055,35.29999923706055,133394
2017-01-03,35.75,35.849998474121094,34.599998474121094,35.150001525878906,35.150001525878906,118761
2017-01-04,35.20000076293945,37.70000076293945,35.150001525878906,37.349998474121094,37.349998474121094,429340
2017-01-05,37.099998474121094,39.400001525878906,37.04999923706055,38.70000076293945,38.70000076293945,504048
2017-01-06,38.70000076293945,39.099998474121094,37.5,37.79999923706055,37.79999923706055,131052
2017-01-09,37.900001525878906,38.650001525878906,36.5,37.900001525878906,37.900001525878906,58100
2017-01-10,38.79999923706055,38.79999923706055,37.45000076293945,37.95000076293945,37.95000076293945,62187
2017-01-11,38.099998474121094,41.0,38.099998474121094,39.95000076293945,39.95000076293945,521142
2017-01-12,39.599998474121094,40.400001525878906,38.20000076293945,38.400001525878906,38.400001525878906,88258
2017-01-13,38.099998474121094,38.599998474121094,38.04999923706055,38.25,38.25,39624
2017-01-16,40.0,40.0,38.349998474121094,38.5,38.5,31032
2017-01-17,38.54999923706055,39.0,37.400001525878906,37.849998474121094,37.849998474121094,57753
2017-01-18,37.599998474121094,40.349998474121094,37.099998474121094,38.45000076293945,38.45000076293945,214678
2017-01-19,39.25,39.29999923706055,37.70000076293945,38.29999923706055,38.29999923706055,91960
2017-01-20,38.099998474121094,38.5,37.29999923706055,37.45000076293945,37.45000076293945,54924
2017-01-23,37.400001525878906,38.45000076293945,36.70000076293945,37.599998474121094,37.599998474121094,28527
2017-01-24,38.0,38.0,37.0,37.20000076293945,37.20000076293945,37219
2017-01-25,36.900001525878906,37.70000076293945,35.29999923706055,36.75,36.75,210826
2017-01-27,36.5,37.25,35.75,36.04999923706055,36.04999923706055,64261
2017-01-30,35.5,36.400001525878906,31.700000762939453,32.29999923706055,32.29999923706055,359371
2017-01-31,32.70000076293945,34.79999923706055,32.349998474121094,33.0,33.0,114120
2017-02-01,32.5,33.900001525878906,32.099998474121094,32.95000076293945,32.95000076293945,74176
2017-02-02,33.0,34.20000076293945,32.79999923706055,33.5,33.5,49581
2017-02-03,33.29999923706055,34.0,32.29999923706055,33.75,33.75,48751
2017-02-06,34.25,35.900001525878906,33.75,34.70000076293945,34.70000076293945,132671
2017-02-07,36.5,36.5,34.5,34.599998474121094,34.599998474121094,45924
2017-02-08,34.599998474121094,35.349998474121094,34.25,34.349998474121094,34.349998474121094,33670
2017-02-09,34.5,37.20000076293945,34.25,36.0,36.0,330219
2017-02-10,37.0,37.5,35.400001525878906,36.04999923706055,36.04999923706055,121000
2017-02-13,36.0,36.79999923706055,35.349998474121094,35.599998474121094,35.599998474121094,32118
2017-02-14,35.650001525878906,36.20000076293945,35.150001525878906,35.29999923706055,35.29999923706055,22880
2017-02-15,35.0,35.0,33.70000076293945,33.849998474121094,33.849998474121094,42469
2017-02-16,34.5,34.5,33.400001525878906,33.79999923706055,33.79999923706055,31395
2017-02-17,34.099998474121094,34.099998474121094,33.29999923706055,33.70000076293945,33.70000076293945,19415
2017-02-20,33.5,34.5,33.099998474121094,33.849998474121094,33.849998474121094,38342
2017-02-21,34.0,34.79999923706055,33.5,33.599998474121094,33.599998474121094,32112
2017-02-22,34.0,34.0,32.099998474121094,32.54999923706055,32.54999923706055,42701
2017-02-23,32.900001525878906,33.5,31.600000381469727,31.899999618530273,31.899999618530273,48206
2017-02-27,31.950000762939453,32.5,31.75,32.04999923706055,32.04999923706055,41218
2017-02-28,32.0,32.45000076293945,31.799999237060547,32.20000076293945,32.20000076293945,20527
2017-03-01,32.0,33.5,31.899999618530273,32.95000076293945,32.95000076293945,42886
2017-03-02,32.70000076293945,34.849998474121094,32.25,33.54999923706055,33.54999923706055,282174
2017-03-03,33.95000076293945,34.20000076293945,32.599998474121094,33.650001525878906,33.650001525878906,48641
2017-03-06,33.20000076293945,33.5,32.25,32.45000076293945,32.45000076293945,70065
2017-03-07,32.20000076293945,32.900001525878906,32.0,32.29999923706055,32.29999923706055,28368
2017-03-08,32.099998474121094,32.5,31.649999618530273,31.700000762939453,31.700000762939453,20610
2017-03-09,31.549999237060547,31.950000762939453,30.75,31.100000381469727,31.100000381469727,111195
2017-03-10,30.649999618530273,31.850000381469727,30.649999618530273,31.299999237060547,31.299999237060547,25269
2017-03-14,32.45000076293945,32.45000076293945,31.0,31.399999618530273,31.399999618530273,69497
2017-03-15,31.350000381469727,32.400001525878906,31.350000381469727,31.899999618530273,31.899999618530273,37445
2017-03-16,32.04999923706055,32.79999923706055,31.850000381469727,32.0,32.0,42807
2017-03-17,32.0,32.599998474121094,31.850000381469727,31.899999618530273,31.899999618530273,29016
2017-03-20,32.900001525878906,32.900001525878906,31.700000762939453,32.0,32.0,9432
2017-03-21,31.850000381469727,32.29999923706055,31.799999237060547,32.04999923706055,32.04999923706055,54836
2017-03-22,31.700000762939453,32.5,31.25,31.299999237060547,31.299999237060547,21092
2017-03-23,31.200000762939453,32.900001525878906,31.049999237060547,32.349998474121094,32.349998474121094,60328
2017-03-24,32.0,34.400001525878906,32.0,32.79999923706055,32.79999923706055,90614
2017-03-27,33.25,34.0,32.400001525878906,32.599998474121094,32.599998474121094,65253
2017-03-28,32.54999923706055,34.0,32.150001525878906,32.349998474121094,32.349998474121094,36787
2017-03-29,32.5,33.0,31.5,31.75,31.75,86414
2017-03-30,32.29999923706055,33.400001525878906,32.29999923706055,33.29999923706055,33.29999923706055,59919
2017-03-31,33.70000076293945,33.900001525878906,31.899999618530273,32.849998474121094,32.849998474121094,107805
2017-04-03,32.849998474121094,33.25,32.75,32.849998474121094,32.849998474121094,56778
2017-04-05,32.70000076293945,34.0,32.29999923706055,32.599998474121094,32.599998474121094,95408
2017-04-06,32.599998474121094,33.29999923706055,32.599998474121094,33.0,33.0,41491
2017-04-07,33.45000076293945,33.45000076293945,31.0,31.549999237060547,31.549999237060547,117998
2017-04-10,31.899999618530273,32.599998474121094,31.850000381469727,32.25,32.25,84074
2017-04-11,32.25,32.70000076293945,31.950000762939453,32.25,32.25,29988
2017-04-12,32.29999923706055,33.0,31.0,31.600000381469727,31.600000381469727,92493
2017-04-13,31.600000381469727,32.0,31.200000762939453,31.299999237060547,31.299999237060547,75729
2017-04-17,31.25,31.950000762939453,30.700000762939453,30.799999237060547,30.799999237060547,112335
2017-04-18,31.0,31.350000381469727,29.799999237060547,30.0,30.0,105737
2017-04-19,30.0,30.100000381469727,29.700000762939453,29.950000762939453,29.950000762939453,55994
2017-04-20,30.0,30.399999618530273,29.75,30.0,30.0,131865
2017-04-21,30.5,31.299999237060547,30.299999237060547,30.649999618530273,30.649999618530273,61985
2017-04-24,30.5,31.399999618530273,29.75,29.950000762939453,29.950000762939453,126121
2017-04-25,29.799999237060547,30.0,28.100000381469727,28.700000762939453,28.700000762939453,247725
2017-04-26,28.700000762939453,30.0,28.5,28.950000762939453,28.950000762939453,128261
2017-04-27,29.0,29.399999618530273,28.649999618530273,29.0,29.0,38237
2017-04-28,29.399999618530273,29.399999618530273,28.549999237060547,29.0,29.0,33101
2017-05-02,29.450000762939453,30.5,28.600000381469727,29.200000762939453,29.200000762939453,108518
2017-05-03,29.100000381469727,29.25,28.799999237060547,28.950000762939453,28.950000762939453,18089
2017-05-04,28.649999618530273,29.649999618530273,28.649999618530273,29.149999618530273,29.149999618530273,39573
2017-05-05,28.899999618530273,29.350000381469727,28.649999618530273,28.899999618530273,28.899999618530273,32220
2017-05-08,28.75,30.799999237060547,28.700000762939453,29.149999618530273,29.149999618530273,157630
2017-05-09,29.149999618530273,29.600000381469727,29.0,29.399999618530273,29.399999618530273,28023
2017-05-10,29.399999618530273,33.5,29.100000381469727,30.700000762939453,30.700000762939453,461218
2017-05-11,31.0,32.400001525878906,31.0,31.200000762939453,31.200000762939453,251883
2017-05-12,31.350000381469727,31.600000381469727,30.5,31.149999618530273,31.149999618530273,52688
2017-05-15,31.149999618530273,31.899999618530273,29.700000762939453,29.950000762939453,29.950000762939453,56623
2017-05-16,30.0,30.399999618530273,29.5,29.75,29.75,33885
2017-05-17,29.100000381469727,30.149999618530273,29.100000381469727,29.600000381469727,29.600000381469727,50569
2017-05-18,29.350000381469727,30.450000762939453,29.049999237060547,29.149999618530273,29.149999618530273,34463
2017-05-19,29.25,29.899999618530273,28.700000762939453,28.899999618530273,28.899999618530273,32480
2017-05-22,29.0,29.450000762939453,28.25,28.649999618530273,28.649999618530273,20624
2017-05-23,29.0,29.0,27.100000381469727,28.049999237060547,28.049999237060547,52037
2017-05-24,28.049999237060547,28.549999237060547,26.799999237060547,27.350000381469727,27.350000381469727,63868
2017-05-25,27.049999237060547,28.549999237060547,27.0,28.399999618530273,28.399999618530273,23243
2017-05-26,28.5,29.75,28.200000762939453,28.75,28.75,58611
2017-05-29,28.649999618530273,29.299999237060547,28.649999618530273,28.950000762939453,28.950000762939453,24207
2017-05-30,27.399999618530273,28.649999618530273,27.100000381469727,27.600000381469727,27.600000381469727,28570
2017-05-31,27.5,28.25,27.5,27.850000381469727,27.850000381469727,13739
2017-06-01,28.0,28.100000381469727,27.149999618530273,27.25,27.25,30038
2017-06-02,27.549999237060547,27.850000381469727,27.25,27.450000762939453,27.450000762939453,17591
2017-06-05,27.5,28.200000762939453,27.5,27.600000381469727,27.600000381469727,20677
2017-06-06,27.600000381469727,27.700000762939453,27.25,27.299999237060547,27.299999237060547,13478
2017-06-07,27.25,27.75,27.0,27.100000381469727,27.100000381469727,19473
2017-06-08,27.100000381469727,27.5,26.100000381469727,26.299999237060547,26.299999237060547,41556
2017-06-09,26.100000381469727,28.649999618530273,26.100000381469727,26.950000762939453,26.950000762939453,45742
2017-06-12,27.0,27.149999618530273,26.399999618530273,26.950000762939453,26.950000762939453,18706
2017-06-13,27.0,28.600000381469727,26.600000381469727,27.950000762939453,27.950000762939453,142287
2017-06-14,27.700000762939453,28.100000381469727,27.0,27.100000381469727,27.100000381469727,30890
2017-06-15,27.100000381469727,27.299999237060547,26.549999237060547,26.899999618530273,26.899999618530273,17885
2017-06-16,26.799999237060547,27.100000381469727,26.5,26.75,26.75,31957
2017-06-19,26.75,27.200000762939453,26.75,26.850000381469727,26.850000381469727,15458
2017-06-20,27.149999618530273,27.149999618530273,26.549999237060547,26.700000762939453,26.700000762939453,24330
2017-06-21,26.649999618530273,26.75,26.5,26.549999237060547,26.549999237060547,9485
2017-06-22,26.649999618530273,27.149999618530273,26.450000762939453,26.5,26.5,62694
2017-06-23,26.5,26.899999618530273,25.5,25.950000762939453,25.950000762939453,27803
2017-06-27,26.850000381469727,26.850000381469727,24.850000381469727,25.0,25.0,37173
2017-06-28,24.799999237060547,25.799999237060547,24.25,24.450000762939453,24.450000762939453,40660
2017-06-29,24.5,24.899999618530273,23.75,24.549999237060547,24.549999237060547,45965
2017-06-30,24.25,25.100000381469727,23.950000762939453,24.100000381469727,24.100000381469727,44551
2017-07-03,24.149999618530273,24.700000762939453,24.149999618530273,24.350000381469727,24.350000381469727,8615
2017-07-04,24.299999237060547,24.950000762939453,24.149999618530273,24.649999618530273,24.649999618530273,14596
2017-07-05,24.700000762939453,25.649999618530273,24.700000762939453,25.149999618530273,25.149999618530273,16122
2017-07-06,25.950000762939453,25.950000762939453,24.600000381469727,25.149999618530273,25.149999618530273,17717
2017-07-07,25.049999237060547,25.700000762939453,24.600000381469727,25.25,25.25,34453
2017-07-10,24.799999237060547,25.75,24.799999237060547,25.100000381469727,25.100000381469727,8351
2017-07-11,24.850000381469727,25.75,24.100000381469727,24.600000381469727,24.600000381469727,13895
2017-07-12,24.600000381469727,25.149999618530273,24.5,24.600000381469727,24.600000381469727,14308
2017-07-13,24.600000381469727,25.0,24.5,24.549999237060547,24.549999237060547,37474
2017-07-14,24.5,25.149999618530273,24.5,24.950000762939453,24.950000762939453,17637
2017-07-17,25.0,25.75,24.799999237060547,25.600000381469727,25.600000381469727,39145
2017-07-18,25.350000381469727,25.600000381469727,24.5,24.850000381469727,24.850000381469727,41632
2017-07-19,24.75,25.100000381469727,24.25,24.399999618530273,24.399999618530273,18944
2017-07-20,24.700000762939453,25.149999618530273,24.450000762939453,24.899999618530273,24.899999618530273,26055
2017-07-21,24.799999237060547,25.0,24.0,24.75,24.75,16730
2017-07-24,24.75,25.200000762939453,24.75,24.799999237060547,24.799999237060547,24326
2017-07-25,25.5,25.5,24.299999237060547,24.799999237060547,24.799999237060547,51248
2017-07-26,24.649999618530273,25.0,24.450000762939453,24.549999237060547,24.549999237060547,38857
2017-07-27,24.549999237060547,24.600000381469727,23.450000762939453,23.700000762939453,23.700000762939453,133535
2017-07-28,24.0,24.450000762939453,23.0,23.200000762939453,23.200000762939453,108888
2017-07-31,23.200000762939453,23.700000762939453,22.950000762939453,23.0,23.0,38992
2017-08-01,23.049999237060547,23.799999237060547,22.899999618530273,23.399999618530273,23.399999618530273,90572
2017-08-02,23.100000381469727,23.450000762939453,22.799999237060547,23.049999237060547,23.049999237060547,19506
2017-08-03,23.0,23.299999237060547,22.100000381469727,22.399999618530273,22.399999618530273,37729
2017-08-04,22.299999237060547,22.5,22.0,22.049999237060547,22.049999237060547,44240
2017-08-07,22.049999237060547,22.700000762939453,21.799999237060547,21.950000762939453,21.950000762939453,43376
2017-08-08,21.950000762939453,21.950000762939453,20.75,21.0,21.0,33294
2017-08-09,22.5,22.5,20.200000762939453,20.5,20.5,42243
2017-08-10,20.299999237060547,20.450000762939453,19.5,19.600000381469727,19.600000381469727,42944
2017-08-11,19.100000381469727,20.549999237060547,18.149999618530273,19.899999618530273,19.899999618530273,33962
2017-08-14,20.100000381469727,23.850000381469727,19.549999237060547,23.649999618530273,23.649999618530273,100864
2017-08-16,23.950000762939453,27.5,22.149999618530273,27.149999618530273,27.149999618530273,356832
2017-08-17,26.5,29.700000762939453,26.5,27.899999618530273,27.899999618530273,250449
2017-08-18,27.450000762939453,28.450000762939453,26.5,27.549999237060547,27.549999237060547,95723
2017-08-21,28.399999618530273,28.399999618530273,26.25,26.649999618530273,26.649999618530273,54707
2017-08-22,27.899999618530273,27.899999618530273,24.0,24.25,24.25,73437
2017-08-23,24.700000762939453,24.899999618530273,23.100000381469727,23.850000381469727,23.850000381469727,45431
2017-08-24,23.850000381469727,24.450000762939453,23.200000762939453,23.850000381469727,23.850000381469727,22450
2017-08-28,23.899999618530273,24.600000381469727,23.0,23.549999237060547,23.549999237060547,23522
2017-08-29,24.25,24.25,23.149999618530273,23.450000762939453,23.450000762939453,3747
2017-08-30,23.549999237060547,23.549999237060547,23.100000381469727,23.200000762939453,23.200000762939453,8367
2017-08-31,23.899999618530273,23.899999618530273,22.75,22.850000381469727,22.850000381469727,25651
2017-09-01,23.0,23.75,23.0,23.549999237060547,23.549999237060547,13335
2017-09-04,24.75,24.75,23.100000381469727,24.450000762939453,24.450000762939453,20073
2017-09-05,24.450000762939453,25.600000381469727,24.450000762939453,24.5,24.5,17724
2017-09-06,24.450000762939453,24.5,23.75,23.950000762939453,23.950000762939453,17330
2017-09-07,24.049999237060547,24.350000381469727,23.799999237060547,23.799999237060547,23.799999237060547,4010
2017-09-08,24.799999237060547,24.799999237060547,23.700000762939453,24.0,24.0,3903
2017-09-11,23.899999618530273,24.399999618530273,23.399999618530273,23.700000762939453,23.700000762939453,10549
2017-09-12,23.700000762939453,24.450000762939453,23.549999237060547,23.700000762939453,23.700000762939453,10781
2017-09-13,23.549999237060547,24.350000381469727,23.5,23.649999618530273,23.649999618530273,25948
2017-09-14,24.0,24.799999237060547,23.700000762939453,23.799999237060547,23.799999237060547,24222
2017-09-15,23.5,24.899999618530273,23.0,24.600000381469727,24.600000381469727,44963
2017-09-18,24.600000381469727,25.5,24.200000762939453,24.399999618530273,24.399999618530273,12966
2017-09-19,23.700000762939453,28.5,23.649999618530273,26.850000381469727,26.850000381469727,382630
2017-09-20,27.299999237060547,27.799999237060547,25.200000762939453,26.549999237060547,26.549999237060547,172898
2017-09-21,26.5,26.5,25.399999618530273,25.600000381469727,25.600000381469727,25898
2017-09-22,25.399999618530273,25.700000762939453,23.549999237060547,24.100000381469727,24.100000381469727,71481
2017-09-25,23.600000381469727,24.600000381469727,23.0,23.700000762939453,23.700000762939453,30155
2017-09-26,23.950000762939453,24.649999618530273,23.149999618530273,24.299999237060547,24.299999237060547,14314
2017-09-27,24.350000381469727,25.200000762939453,23.649999618530273,24.200000762939453,24.200000762939453,35046
2017-09-28,24.049999237060547,24.5,24.049999237060547,24.200000762939453,24.200000762939453,15036
2017-09-29,24.5,25.700000762939453,23.399999618530273,23.600000381469727,23.600000381469727,22638
2017-10-03,23.700000762939453,24.549999237060547,22.200000762939453,23.25,23.25,25977
2017-10-04,22.149999618530273,27.899999618530273,22.149999618530273,27.799999237060547,27.799999237060547,466702
2017-10-05,29.0,29.0,25.200000762939453,25.450000762939453,25.450000762939453,189552
2017-10-06,24.899999618530273,26.350000381469727,24.899999618530273,26.049999237060547,26.049999237060547,48435
2017-10-09,25.899999618530273,26.450000762939453,25.350000381469727,25.649999618530273,25.649999618530273,54374
2017-10-10,25.600000381469727,26.149999618530273,25.0,25.549999237060547,25.549999237060547,41537
2017-10-11,25.549999237060547,25.799999237060547,24.75,25.100000381469727,25.100000381469727,27762
2017-10-12,25.0,25.399999618530273,24.5,24.850000381469727,24.850000381469727,16547
2017-10-13,25.5,27.049999237060547,24.350000381469727,25.649999618530273,25.649999618530273,87549
2017-10-16,25.399999618530273,26.0,24.0,24.549999237060547,24.549999237060547,88438
2017-10-17,25.149999618530273,26.700000762939453,24.549999237060547,26.0,26.0,53834
2017-10-18,26.0,26.899999618530273,25.25,26.299999237060547,26.299999237060547,126355
2017-10-19,26.299999237060547,27.0,25.299999237060547,25.600000381469727,25.600000381469727,20135
2017-10-23,25.5,26.25,24.5,24.950000762939453,24.950000762939453,55228
2017-10-24,25.600000381469727,25.600000381469727,25.049999237060547,25.25,25.25,19192
2017-10-25,25.75,25.75,25.049999237060547,25.350000381469727,25.350000381469727,37249
2017-10-26,25.850000381469727,25.899999618530273,24.700000762939453,25.049999237060547,25.049999237060547,72886
2017-10-27,25.649999618530273,25.649999618530273,24.950000762939453,25.100000381469727,25.100000381469727,40445
2017-10-30,25.549999237060547,25.600000381469727,24.649999618530273,25.399999618530273,25.399999618530273,23010
2017-10-31,25.0,25.649999618530273,24.700000762939453,25.200000762939453,25.200000762939453,9738
2017-11-01,25.5,26.100000381469727,25.0,25.100000381469727,25.100000381469727,29229
2017-11-02,25.450000762939453,26.5,25.149999618530273,25.649999618530273,25.649999618530273,63373
2017-11-03,26.299999237060547,27.299999237060547,25.5,25.75,25.75,111485
2017-11-06,25.75,26.549999237060547,24.799999237060547,25.649999618530273,25.649999618530273,44534
2017-11-07,25.649999618530273,26.450000762939453,24.600000381469727,24.850000381469727,24.850000381469727,93213
2017-11-08,25.700000762939453,27.0,24.549999237060547,25.799999237060547,25.799999237060547,131733
2017-11-09,26.299999237060547,26.450000762939453,25.0,25.399999618530273,25.399999618530273,30202
2017-11-10,25.5,26.450000762939453,25.299999237060547,25.649999618530273,25.649999618530273,42804
2017-11-13,25.25,28.450000762939453,25.25,27.149999618530273,27.149999618530273,212054
2017-11-14,27.0,28.899999618530273,25.75,26.299999237060547,26.299999237060547,246519
2017-11-15,26.5,26.5,24.200000762939453,24.950000762939453,24.950000762939453,105040
2017-11-16,25.450000762939453,25.75,24.75,24.950000762939453,24.950000762939453,38103
2017-11-17,24.700000762939453,25.600000381469727,24.399999618530273,25.0,25.0,45313
2017-11-20,24.75,25.399999618530273,24.75,25.0,25.0,14317
2017-11-21,25.25,25.350000381469727,24.5,24.950000762939453,24.950000762939453,21609
2017-11-22,25.0,26.899999618530273,24.5,26.200000762939453,26.200000762939453,97451
2017-11-23,26.950000762939453,27.600000381469727,26.549999237060547,26.950000762939453,26.950000762939453,232717
2017-11-24,26.950000762939453,27.399999618530273,26.049999237060547,27.049999237060547,27.049999237060547,56414
2017-11-27,27.049999237060547,27.5,26.25,26.549999237060547,26.549999237060547,66134
2017-11-28,26.549999237060547,27.5,26.299999237060547,26.549999237060547,26.549999237060547,57655
2017-11-29,26.5,26.75,26.100000381469727,26.149999618530273,26.149999618530273,20444
2017-11-30,26.0,26.75,25.25,25.950000762939453,25.950000762939453,34767
2017-12-01,25.950000762939453,26.649999618530273,25.649999618530273,25.850000381469727,25.850000381469727,65269
2017-12-04,26.5,26.5,25.25,25.299999237060547,25.299999237060547,26779
2017-12-05,25.950000762939453,26.25,24.899999618530273,25.149999618530273,25.149999618530273,21877
2017-12-06,25.149999618530273,28.450000762939453,25.0,26.149999618530273,26.149999618530273,151123
2017-12-07,26.149999618530273,27.799999237060547,26.149999618530273,26.950000762939453,26.950000762939453,91198
2017-12-08,26.950000762939453,29.399999618530273,26.850000381469727,28.0,28.0,517268
2017-12-11,28.0,30.799999237060547,28.0,29.200000762939453,29.200000762939453,730344
2017-12-12,29.5,29.5,27.600000381469727,27.899999618530273,27.899999618530273,103660
2017-12-13,27.899999618530273,29.899999618530273,26.850000381469727,27.049999237060547,27.049999237060547,176048
2017-12-14,27.549999237060547,28.200000762939453,27.0,27.600000381469727,27.600000381469727,74357
2017-12-15,28.0,28.25,27.399999618530273,27.649999618530273,27.649999618530273,58777
2017-12-18,27.200000762939453,28.399999618530273,26.850000381469727,27.5,27.5,54297
2017-12-19,27.5,29.25,27.350000381469727,27.850000381469727,27.850000381469727,101570
2017-12-20,27.850000381469727,28.5,27.700000762939453,28.0,28.0,79056
2017-12-21,28.0,29.25,28.0,28.75,28.75,118370
2017-12-22,29.25,29.450000762939453,28.5,28.649999618530273,28.649999618530273,57848
2017-12-26,28.649999618530273,30.5,28.649999618530273,29.149999618530273,29.149999618530273,123094
2017-12-27,28.899999618530273,30.149999618530273,28.700000762939453,28.799999237060547,28.799999237060547,73317
2017-12-28,29.0,29.5,28.5,28.799999237060547,28.799999237060547,61720
2017-12-29,28.799999237060547,29.799999237060547,28.799999237060547,29.149999618530273,29.149999618530273,69722
