Date,Open,High,Low,Close,Adj Close,Volume
2010-01-04,47.95000076293945,49.099998474121094,46.099998474121094,48.79999923706055,48.79999923706055,178216
2010-01-05,49.04999923706055,50.0,47.5,48.0,48.0,90100
2010-01-06,48.5,48.5,45.599998474121094,46.0,46.0,198607
2010-01-07,47.0,48.29999923706055,46.5,47.150001525878906,47.150001525878906,155651
2010-01-08,48.400001525878906,49.099998474121094,44.79999923706055,49.0,49.0,482938
2010-01-11,50.0,50.0,47.599998474121094,48.849998474121094,48.849998474121094,75340
2010-01-12,47.04999923706055,48.20000076293945,46.45000076293945,46.45000076293945,46.45000076293945,28852
2010-01-13,46.400001525878906,46.400001525878906,44.150001525878906,44.150001525878906,44.150001525878906,169294
2010-01-14,45.0,45.0,41.95000076293945,41.95000076293945,41.95000076293945,196137
2010-01-15,41.0,44.04999923706055,40.79999923706055,44.04999923706055,44.04999923706055,30900
2010-01-18,45.45000076293945,46.25,45.349998474121094,46.25,46.25,32000
2010-01-19,48.599998474121094,48.599998474121094,43.95000076293945,43.95000076293945,43.95000076293945,67500
2010-01-20,42.0,43.95000076293945,41.75,41.75,41.75,35200
2010-01-21,39.70000076293945,39.70000076293945,39.70000076293945,39.70000076293945,39.70000076293945,21800
2010-01-22,37.75,37.75,37.75,37.75,37.75,9200
2010-01-25,35.900001525878906,35.900001525878906,35.900001525878906,35.900001525878906,35.900001525878906,9500
2010-01-27,34.099998474121094,34.099998474121094,34.099998474121094,34.099998474121094,34.099998474121094,10500
2010-01-28,32.599998474121094,35.849998474121094,32.400001525878906,32.75,32.75,1566053
2010-01-29,32.45000076293945,34.0,32.45000076293945,33.400001525878906,33.400001525878906,65137
2010-02-01,33.099998474121094,34.79999923706055,31.850000381469727,32.75,32.75,78345
2010-02-02,33.75,34.0,31.25,31.950000762939453,31.950000762939453,15011
2010-02-03,31.0,32.79999923706055,30.350000381469727,30.799999237060547,30.799999237060547,40200
2010-02-04,31.600000381469727,31.600000381469727,29.549999237060547,29.649999618530273,29.649999618530273,11137
2010-02-05,29.100000381469727,29.100000381469727,28.200000762939453,28.299999237060547,28.299999237060547,15533
2010-02-08,28.049999237060547,30.149999618530273,27.5,28.75,28.75,26349
2010-02-09,29.100000381469727,29.850000381469727,28.5,29.100000381469727,29.100000381469727,424495
2010-02-10,29.149999618530273,30.299999237060547,28.5,28.549999237060547,28.549999237060547,19360
2010-02-11,29.950000762939453,29.950000762939453,27.149999618530273,27.149999618530273,27.149999618530273,30211
2010-02-15,28.549999237060547,28.549999237060547,25.799999237060547,25.799999237060547,25.799999237060547,169119
2010-02-16,25.899999618530273,25.899999618530273,24.549999237060547,24.549999237060547,24.549999237060547,136838
2010-02-17,23.600000381469727,25.799999237060547,23.350000381469727,25.799999237060547,25.799999237060547,213252
2010-02-18,26.350000381469727,26.350000381469727,24.549999237060547,24.549999237060547,24.549999237060547,51140
2010-02-19,23.350000381469727,25.350000381469727,23.350000381469727,23.350000381469727,23.350000381469727,282352
2010-02-22,23.5,24.0,22.200000762939453,22.200000762939453,22.200000762939453,297080
2010-02-23,21.5,22.950000762939453,21.100000381469727,21.100000381469727,21.100000381469727,309610
2010-02-24,20.049999237060547,21.549999237060547,20.049999237060547,21.399999618530273,21.399999618530273,118599
2010-02-25,21.149999618530273,22.100000381469727,21.100000381469727,21.600000381469727,21.600000381469727,32016
2010-02-26,22.25,22.25,20.549999237060547,20.549999237060547,20.549999237060547,113384
2010-03-02,20.549999237060547,21.600000381469727,19.549999237060547,19.649999618530273,19.649999618530273,409726
2010-03-03,19.899999618530273,20.600000381469727,18.700000762939453,19.100000381469727,19.100000381469727,496187
2010-03-04,19.649999618530273,20.100000381469727,19.0,20.100000381469727,20.100000381469727,558765
2010-03-05,21.149999618530273,21.149999618530273,20.75,21.149999618530273,21.149999618530273,82080
2010-03-08,22.25,22.25,22.25,22.25,22.25,24751
2010-03-09,23.399999618530273,23.399999618530273,21.899999618530273,23.399999618530273,23.399999618530273,836498
2010-03-10,24.399999618530273,24.600000381469727,23.5,24.600000381469727,24.600000381469727,453442
2010-03-11,25.399999618530273,25.600000381469727,24.149999618530273,24.600000381469727,24.600000381469727,373248
2010-03-12,25.0,25.0,23.399999618530273,23.399999618530273,23.399999618530273,120149
2010-03-15,23.0,23.25,22.25,22.25,22.25,126906
2010-03-16,21.850000381469727,22.25,21.149999618530273,21.299999237060547,21.299999237060547,255620
2010-03-17,21.299999237060547,22.100000381469727,20.75,21.399999618530273,21.399999618530273,158936
2010-03-18,21.149999618530273,21.75,20.350000381469727,20.899999618530273,20.899999618530273,120002
2010-03-19,21.200000762939453,21.950000762939453,20.75,21.899999618530273,21.899999618530273,180215
2010-03-22,21.5,21.899999618530273,21.0,21.100000381469727,21.100000381469727,69928
2010-03-23,21.450000762939453,21.450000762939453,20.450000762939453,20.75,20.75,66040
2010-03-25,20.649999618530273,20.899999618530273,20.299999237060547,20.649999618530273,20.649999618530273,58743
2010-03-26,20.5,21.299999237060547,20.5,21.200000762939453,21.200000762939453,56028
2010-03-29,22.0,22.0,20.600000381469727,21.100000381469727,21.100000381469727,102906
2010-03-30,21.0,21.350000381469727,20.850000381469727,20.950000762939453,20.950000762939453,44872
2010-03-31,21.25,22.0,20.899999618530273,21.649999618530273,21.649999618530273,127279
2010-04-01,22.75,22.75,21.5,21.75,21.75,43324
2010-04-05,21.950000762939453,22.850000381469727,21.950000762939453,22.600000381469727,22.600000381469727,124554
2010-04-06,22.149999618530273,23.75,22.149999618530273,23.75,23.75,354138
2010-04-07,24.700000762939453,24.950000762939453,23.5,24.950000762939453,24.950000762939453,207765
2010-04-08,26.200000762939453,26.200000762939453,24.899999618530273,26.200000762939453,26.200000762939453,622093
2010-04-09,27.399999618530273,27.549999237060547,26.0,26.25,26.25,911825
2010-04-12,26.399999618530273,26.399999618530273,24.950000762939453,24.950000762939453,24.950000762939453,140197
2010-04-13,24.950000762939453,24.950000762939453,23.700000762939453,23.700000762939453,23.700000762939453,271440
2010-04-15,23.700000762939453,23.75,22.549999237060547,22.549999237060547,22.549999237060547,926438
2010-04-16,22.5,23.049999237060547,21.450000762939453,21.450000762939453,21.450000762939453,579621
2010-04-19,21.25,21.799999237060547,20.799999237060547,21.399999618530273,21.399999618530273,74257
2010-04-20,21.049999237060547,21.700000762939453,20.649999618530273,20.950000762939453,20.950000762939453,94556
2010-04-21,20.5,21.75,20.5,21.399999618530273,21.399999618530273,63142
2010-04-22,21.799999237060547,21.950000762939453,21.149999618530273,21.75,21.75,137860
2010-04-23,21.399999618530273,22.100000381469727,21.399999618530273,21.850000381469727,21.850000381469727,57540
2010-04-26,21.549999237060547,22.75,21.299999237060547,22.200000762939453,22.200000762939453,62459
2010-04-27,22.200000762939453,22.899999618530273,21.700000762939453,21.950000762939453,21.950000762939453,56039
2010-04-28,21.299999237060547,22.0,21.299999237060547,21.649999618530273,21.649999618530273,37714
2010-04-29,21.450000762939453,22.0,21.0,21.399999618530273,21.399999618530273,37124
2010-04-30,21.049999237060547,21.799999237060547,21.049999237060547,21.450000762939453,21.450000762939453,17029
2010-05-03,21.049999237060547,21.700000762939453,21.049999237060547,21.399999618530273,21.399999618530273,17057
2010-05-04,21.049999237060547,21.700000762939453,20.5,20.549999237060547,20.549999237060547,32095
2010-05-05,21.600000381469727,21.600000381469727,19.600000381469727,20.399999618530273,20.399999618530273,28704
2010-05-06,20.0,21.149999618530273,20.0,21.0,21.0,33587
2010-05-07,20.5,20.899999618530273,20.0,20.649999618530273,20.649999618530273,55439
2010-05-10,20.0,21.0,20.0,20.850000381469727,20.850000381469727,19026
2010-05-11,20.399999618530273,21.899999618530273,20.399999618530273,21.700000762939453,21.700000762939453,50620
2010-05-12,21.200000762939453,21.700000762939453,20.799999237060547,20.950000762939453,20.950000762939453,29069
2010-05-13,21.100000381469727,21.149999618530273,20.75,20.850000381469727,20.850000381469727,18266
2010-05-14,20.25,21.350000381469727,20.25,20.399999618530273,20.399999618530273,11299
2010-05-17,20.600000381469727,20.600000381469727,19.799999237060547,20.5,20.5,13987
2010-05-18,20.5,20.5,20.0,20.200000762939453,20.200000762939453,10754
2010-05-19,19.600000381469727,20.25,19.200000762939453,19.649999618530273,19.649999618530273,17193
2010-05-20,19.200000762939453,19.600000381469727,19.0,19.100000381469727,19.100000381469727,41063
2010-05-21,19.0,19.450000762939453,18.600000381469727,19.049999237060547,19.049999237060547,17059
2010-05-24,19.899999618530273,19.899999618530273,19.0,19.100000381469727,19.100000381469727,28551
2010-05-25,19.399999618530273,19.399999618530273,18.5,18.799999237060547,18.799999237060547,15269
2010-05-26,18.899999618530273,18.899999618530273,17.899999618530273,18.25,18.25,62234
2010-05-27,18.100000381469727,18.399999618530273,17.899999618530273,18.350000381469727,18.350000381469727,14628
2010-05-28,18.799999237060547,19.200000762939453,18.350000381469727,19.149999618530273,19.149999618530273,14014
2010-05-31,18.549999237060547,19.700000762939453,18.549999237060547,19.549999237060547,19.549999237060547,13736
2010-06-01,19.5,19.850000381469727,18.899999618530273,19.0,19.0,19257
2010-06-02,19.799999237060547,19.799999237060547,18.899999618530273,19.399999618530273,19.399999618530273,4717
2010-06-03,19.399999618530273,19.700000762939453,19.049999237060547,19.049999237060547,19.049999237060547,11718
2010-06-04,19.0,19.200000762939453,18.399999618530273,18.549999237060547,18.549999237060547,32803
2010-06-07,18.25,18.75,18.049999237060547,18.399999618530273,18.399999618530273,21497
2010-06-08,18.149999618530273,18.850000381469727,18.149999618530273,18.399999618530273,18.399999618530273,53380
2010-06-09,18.399999618530273,18.5,18.299999237060547,18.350000381469727,18.350000381469727,6332
2010-06-10,18.049999237060547,18.5,18.049999237060547,18.350000381469727,18.350000381469727,21555
2010-06-11,18.25,18.850000381469727,18.25,18.5,18.5,20676
2010-06-14,18.600000381469727,18.700000762939453,18.200000762939453,18.25,18.25,76281
2010-06-15,18.399999618530273,18.600000381469727,18.049999237060547,18.350000381469727,18.350000381469727,97628
2010-06-16,18.350000381469727,18.5,18.200000762939453,18.399999618530273,18.399999618530273,64467
2010-06-17,18.5,18.5,17.899999618530273,17.950000762939453,17.950000762939453,136147
2010-06-18,18.450000762939453,18.450000762939453,17.899999618530273,17.899999618530273,17.899999618530273,24014
2010-06-21,17.850000381469727,18.200000762939453,17.799999237060547,17.899999618530273,17.899999618530273,36018
2010-06-22,18.200000762939453,18.600000381469727,17.950000762939453,18.049999237060547,18.049999237060547,124220
2010-06-23,17.850000381469727,18.25,17.850000381469727,17.899999618530273,17.899999618530273,124923
2010-06-24,18.049999237060547,18.200000762939453,17.799999237060547,17.850000381469727,17.850000381469727,130321
2010-06-25,17.799999237060547,18.100000381469727,17.75,17.899999618530273,17.899999618530273,33647
2010-06-28,18.299999237060547,18.299999237060547,17.850000381469727,17.899999618530273,17.899999618530273,41721
2010-06-29,18.299999237060547,18.450000762939453,17.799999237060547,17.850000381469727,17.850000381469727,19462
2010-06-30,17.600000381469727,18.0,17.5,17.950000762939453,17.950000762939453,14320
2010-07-01,17.950000762939453,18.0,17.700000762939453,17.950000762939453,17.950000762939453,29065
2010-07-02,18.25,18.850000381469727,17.850000381469727,17.899999618530273,17.899999618530273,473567
2010-07-05,18.100000381469727,18.100000381469727,17.899999618530273,17.950000762939453,17.950000762939453,65526
2010-07-06,17.799999237060547,18.049999237060547,17.799999237060547,17.950000762939453,17.950000762939453,69720
2010-07-07,18.25,18.25,17.649999618530273,17.850000381469727,17.850000381469727,201591
2010-07-08,18.100000381469727,18.100000381469727,17.75,17.899999618530273,17.899999618530273,53677
2010-07-09,17.850000381469727,18.149999618530273,17.850000381469727,17.950000762939453,17.950000762939453,62868
2010-07-12,18.0,18.100000381469727,17.450000762939453,17.649999618530273,17.649999618530273,119240
2010-07-13,17.950000762939453,18.5,17.600000381469727,17.799999237060547,17.799999237060547,168056
2010-07-14,18.350000381469727,18.350000381469727,17.25,17.350000381469727,17.350000381469727,144525
2010-07-15,17.399999618530273,17.950000762939453,17.399999618530273,17.600000381469727,17.600000381469727,140710
2010-07-16,17.5,17.799999237060547,17.450000762939453,17.600000381469727,17.600000381469727,43503
2010-07-19,17.799999237060547,17.850000381469727,17.5,17.75,17.75,34451
2010-07-20,17.600000381469727,17.850000381469727,17.600000381469727,17.649999618530273,17.649999618530273,27893
2010-07-21,17.5,17.799999237060547,17.5,17.75,17.75,17828
2010-07-22,17.799999237060547,17.799999237060547,17.549999237060547,17.700000762939453,17.700000762939453,20661
2010-07-23,17.850000381469727,17.850000381469727,17.600000381469727,17.700000762939453,17.700000762939453,36418
2010-07-26,17.799999237060547,17.799999237060547,17.350000381469727,17.450000762939453,17.450000762939453,49570
2010-07-27,17.0,18.0,17.0,17.200000762939453,17.200000762939453,35012
2010-07-28,17.850000381469727,17.850000381469727,17.0,17.149999618530273,17.149999618530273,29033
2010-07-29,17.200000762939453,17.299999237060547,16.799999237060547,16.850000381469727,16.850000381469727,22374
2010-07-30,17.200000762939453,17.600000381469727,16.799999237060547,17.049999237060547,17.049999237060547,49865
2010-08-02,17.200000762939453,17.200000762939453,16.0,17.0,17.0,62730
2010-08-03,17.25,18.0,16.899999618530273,17.0,17.0,256458
2010-08-04,17.25,17.75,16.75,16.799999237060547,16.799999237060547,209349
2010-08-05,17.399999618530273,17.399999618530273,16.049999237060547,16.25,16.25,197667
2010-08-06,16.399999618530273,16.5,15.850000381469727,15.899999618530273,15.899999618530273,397053
2010-08-09,16.0,16.100000381469727,15.899999618530273,16.0,16.0,246465
2010-08-10,16.049999237060547,16.049999237060547,15.800000190734863,15.949999809265137,15.949999809265137,129416
2010-08-11,16.100000381469727,16.100000381469727,15.850000381469727,15.850000381469727,15.850000381469727,293186
2010-08-12,15.5,15.949999809265137,15.449999809265137,15.850000381469727,15.850000381469727,116883
2010-08-13,15.949999809265137,15.949999809265137,15.699999809265137,15.800000190734863,15.800000190734863,139611
2010-08-16,15.949999809265137,15.949999809265137,15.449999809265137,15.550000190734863,15.550000190734863,135444
2010-08-17,16.399999618530273,16.399999618530273,15.199999809265137,15.25,15.25,137578
2010-08-18,15.600000381469727,15.600000381469727,15.199999809265137,15.25,15.25,199473
2010-08-19,15.449999809265137,15.449999809265137,15.199999809265137,15.25,15.25,90012
2010-08-20,15.449999809265137,15.449999809265137,14.850000381469727,15.100000381469727,15.100000381469727,131223
2010-08-23,15.100000381469727,16.350000381469727,15.100000381469727,16.149999618530273,16.149999618530273,486822
2010-08-24,16.5,16.5,15.5,15.649999618530273,15.649999618530273,93098
2010-08-25,16.0,16.0,15.149999618530273,15.25,15.25,64567
2010-08-26,15.949999809265137,15.949999809265137,15.149999618530273,15.25,15.25,23734
2010-08-27,15.5,16.799999237060547,15.5,15.899999618530273,15.899999618530273,1409580
2010-08-30,16.299999237060547,16.399999618530273,15.850000381469727,16.0,16.0,323596
2010-08-31,16.0,16.100000381469727,15.550000190734863,15.699999809265137,15.699999809265137,81446
2010-09-01,15.899999618530273,16.200000762939453,15.649999618530273,15.75,15.75,122099
2010-09-02,15.800000190734863,15.949999809265137,15.550000190734863,15.649999618530273,15.649999618530273,84852
2010-09-03,16.0,16.100000381469727,15.600000381469727,15.649999618530273,15.649999618530273,48613
2010-09-06,15.649999618530273,15.949999809265137,15.5,15.550000190734863,15.550000190734863,534329
2010-09-07,15.5,17.399999618530273,15.5,16.549999237060547,16.549999237060547,944931
2010-09-08,17.0,18.25,16.299999237060547,16.450000762939453,16.450000762939453,1606845
2010-09-09,16.75,17.100000381469727,16.5,16.700000762939453,16.700000762939453,326585
2010-09-13,17.0,17.0,16.5,16.799999237060547,16.799999237060547,112819
2010-09-14,18.100000381469727,20.200000762939453,18.100000381469727,20.200000762939453,20.200000762939453,3818285
2010-09-15,21.0,23.149999618530273,20.75,21.350000381469727,21.350000381469727,5086196
2010-09-16,20.5,21.25,19.399999618530273,19.799999237060547,19.799999237060547,1141649
2010-09-17,19.649999618530273,20.700000762939453,19.549999237060547,20.0,20.0,527695
2010-09-20,20.0,20.5,19.100000381469727,19.25,19.25,355122
2010-09-21,19.149999618530273,20.100000381469727,18.299999237060547,19.0,19.0,855283
2010-09-22,18.899999618530273,19.149999618530273,18.549999237060547,18.700000762939453,18.700000762939453,228311
2010-09-23,18.5,19.950000762939453,18.5,19.149999618530273,19.149999618530273,440663
2010-09-24,19.200000762939453,19.649999618530273,18.75,18.850000381469727,18.850000381469727,174069
2010-09-27,19.299999237060547,19.450000762939453,18.799999237060547,18.850000381469727,18.850000381469727,156663
2010-09-28,18.850000381469727,19.600000381469727,18.549999237060547,19.100000381469727,19.100000381469727,304945
2010-09-29,20.5,22.950000762939453,20.0,22.950000762939453,22.950000762939453,5155992
2010-09-30,23.399999618530273,24.850000381469727,22.299999237060547,22.649999618530273,22.649999618530273,3168202
2010-10-01,22.850000381469727,22.899999618530273,20.149999618530273,21.649999618530273,21.649999618530273,752802
2010-10-04,21.049999237060547,22.0,21.0,21.149999618530273,21.149999618530273,277306
2010-10-05,21.25,21.600000381469727,20.600000381469727,20.75,20.75,335043
2010-10-06,21.25,21.25,20.100000381469727,20.700000762939453,20.700000762939453,349383
2010-10-07,21.0,21.799999237060547,20.649999618530273,21.149999618530273,21.149999618530273,427840
2010-10-08,22.0,23.0,21.5,21.799999237060547,21.799999237060547,1074605
2010-10-11,21.600000381469727,22.149999618530273,21.350000381469727,21.5,21.5,199626
2010-10-12,21.049999237060547,21.850000381469727,19.75,20.950000762939453,20.950000762939453,156225
2010-10-13,21.5,21.700000762939453,20.299999237060547,20.899999618530273,20.899999618530273,234726
2010-10-14,21.299999237060547,21.299999237060547,20.5,20.549999237060547,20.549999237060547,156579
2010-10-15,20.950000762939453,20.950000762939453,20.149999618530273,20.299999237060547,20.299999237060547,141296
2010-10-18,20.100000381469727,20.5,19.799999237060547,19.950000762939453,19.950000762939453,133524
2010-10-19,20.149999618530273,20.600000381469727,19.5,19.75,19.75,231354
2010-10-20,19.75,20.0,19.299999237060547,19.5,19.5,178364
2010-10-21,19.649999618530273,19.950000762939453,19.5,19.700000762939453,19.700000762939453,188397
2010-10-22,19.899999618530273,20.149999618530273,19.5,19.700000762939453,19.700000762939453,233213
2010-10-25,20.0,20.5,19.700000762939453,19.899999618530273,19.899999618530273,114380
2010-10-26,20.0,20.5,19.649999618530273,19.799999237060547,19.799999237060547,201810
2010-10-27,20.399999618530273,20.700000762939453,19.899999618530273,20.100000381469727,20.100000381469727,285659
2010-10-28,20.100000381469727,20.549999237060547,20.049999237060547,20.149999618530273,20.149999618530273,265887
2010-10-29,20.049999237060547,20.299999237060547,19.5,19.799999237060547,19.799999237060547,171934
2010-11-01,20.149999618530273,20.200000762939453,19.799999237060547,19.850000381469727,19.850000381469727,57679
2010-11-02,19.899999618530273,20.200000762939453,19.700000762939453,19.950000762939453,19.950000762939453,118345
2010-11-03,20.200000762939453,20.25,19.600000381469727,19.75,19.75,59676
2010-11-04,19.75,20.200000762939453,19.75,19.850000381469727,19.850000381469727,75524
2010-11-08,20.649999618530273,21.100000381469727,20.200000762939453,20.649999618530273,20.649999618530273,171665
2010-11-09,20.649999618530273,20.899999618530273,20.25,20.5,20.5,94454
2010-11-10,20.5,20.700000762939453,20.200000762939453,20.25,20.25,59479
2010-11-11,20.899999618530273,21.399999618530273,20.399999618530273,20.549999237060547,20.549999237060547,516717
2010-11-12,20.0,20.5,19.049999237060547,19.450000762939453,19.450000762939453,266601
2010-11-15,19.25,19.799999237060547,19.200000762939453,19.399999618530273,19.399999618530273,98525
2010-11-16,19.350000381469727,19.700000762939453,18.799999237060547,18.950000762939453,18.950000762939453,73405
2010-11-18,19.100000381469727,19.149999618530273,18.549999237060547,18.700000762939453,18.700000762939453,71019
2010-11-19,18.700000762939453,18.899999618530273,18.049999237060547,18.350000381469727,18.350000381469727,69228
2010-11-22,18.700000762939453,19.700000762939453,18.549999237060547,19.399999618530273,19.399999618530273,183640
2010-11-23,19.299999237060547,19.399999618530273,18.5,18.950000762939453,18.950000762939453,86126
2010-11-24,18.600000381469727,19.0,18.549999237060547,18.649999618530273,18.649999618530273,65023
2010-11-25,18.5,18.700000762939453,18.299999237060547,18.450000762939453,18.450000762939453,67761
2010-11-26,19.799999237060547,19.799999237060547,17.100000381469727,17.549999237060547,17.549999237060547,84055
2010-11-29,17.549999237060547,17.700000762939453,17.149999618530273,17.450000762939453,17.450000762939453,45028
2010-11-30,18.0,18.149999618530273,17.100000381469727,17.5,17.5,114371
2010-12-01,17.600000381469727,17.700000762939453,17.25,17.649999618530273,17.649999618530273,174828
2010-12-02,17.700000762939453,20.450000762939453,17.700000762939453,19.700000762939453,19.700000762939453,340456
2010-12-03,20.100000381469727,21.25,19.0,19.450000762939453,19.450000762939453,275333
2010-12-06,19.649999618530273,19.700000762939453,18.649999618530273,18.75,18.75,50081
2010-12-07,18.700000762939453,19.299999237060547,18.0,18.100000381469727,18.100000381469727,110076
2010-12-08,18.049999237060547,18.350000381469727,18.0,18.100000381469727,18.100000381469727,37433
2010-12-09,18.100000381469727,18.350000381469727,16.899999618530273,17.0,17.0,109232
2010-12-10,17.0,17.950000762939453,17.0,17.700000762939453,17.700000762939453,97651
2010-12-13,18.0,19.950000762939453,18.0,19.600000381469727,19.600000381469727,442835
2010-12-14,20.0,23.549999237060547,20.0,23.549999237060547,23.549999237060547,2143148
2010-12-15,24.25,25.350000381469727,21.649999618530273,22.5,22.5,2815661
2010-12-16,22.25,23.799999237060547,21.5,23.299999237060547,23.299999237060547,585416
2010-12-20,22.25,23.299999237060547,21.5,21.75,21.75,838214
2010-12-21,21.549999237060547,22.0,20.200000762939453,20.649999618530273,20.649999618530273,589597
2010-12-22,21.0,21.649999618530273,20.5,20.700000762939453,20.700000762939453,269409
2010-12-23,20.700000762939453,21.149999618530273,20.350000381469727,20.700000762939453,20.700000762939453,160819
2010-12-24,20.200000762939453,20.899999618530273,20.0,20.200000762939453,20.200000762939453,64255
2010-12-27,20.149999618530273,20.549999237060547,19.600000381469727,19.649999618530273,19.649999618530273,61465
2010-12-28,20.0,20.100000381469727,19.5,19.75,19.75,79812
2010-12-29,19.950000762939453,20.049999237060547,19.600000381469727,19.700000762939453,19.700000762939453,54785
2010-12-30,19.700000762939453,20.25,19.399999618530273,19.799999237060547,19.799999237060547,43468
