Date,Open,High,Low,Close,Adj Close,Volume
2005-01-03,17.899999618530273,18.450000762939453,16.899999618530273,17.649999618530273,17.649999618530273,5561706
2005-01-04,18.0,18.0,17.0,17.25,17.25,2335297
2005-01-05,17.100000381469727,17.399999618530273,15.0,16.149999618530273,16.149999618530273,2016061
2005-01-06,16.799999237060547,16.799999237060547,15.0,15.600000381469727,15.600000381469727,1773127
2005-01-07,15.600000381469727,16.25,15.600000381469727,15.850000381469727,15.850000381469727,792169
2005-01-10,16.25,17.350000381469727,16.049999237060547,16.299999237060547,16.299999237060547,1295648
2005-01-11,16.649999618530273,16.700000762939453,15.5,15.600000381469727,15.600000381469727,746458
2005-01-12,15.550000190734863,15.949999809265137,14.199999809265137,14.399999618530273,14.399999618530273,1097075
2005-01-13,14.5,15.25,14.5,15.050000190734863,15.050000190734863,761863
2005-01-14,15.399999618530273,15.399999618530273,14.699999809265137,14.800000190734863,14.800000190734863,461974
2005-01-17,15.199999809265137,15.25,13.899999618530273,14.399999618530273,14.399999618530273,610267
2005-01-18,14.25,15.0,14.0,14.649999618530273,14.649999618530273,587264
2005-01-19,14.199999809265137,15.0,14.199999809265137,14.800000190734863,14.800000190734863,516151
2005-01-20,14.800000190734863,15.199999809265137,14.300000190734863,14.449999809265137,14.449999809265137,637720
2005-01-24,14.550000190734863,14.649999618530273,13.899999618530273,14.0,14.0,379176
2005-01-25,12.899999618530273,14.449999809265137,12.899999618530273,14.199999809265137,14.199999809265137,553979
2005-01-27,14.5,14.699999809265137,14.300000190734863,14.350000381469727,14.350000381469727,312277
2005-01-28,14.399999618530273,15.300000190734863,14.399999618530273,14.850000381469727,14.850000381469727,643841
2005-01-31,14.850000381469727,15.25,13.25,14.75,14.75,444263
2005-02-01,15.199999809265137,15.199999809265137,14.5,14.699999809265137,14.699999809265137,512725
2005-02-02,14.600000381469727,15.399999618530273,14.600000381469727,14.899999618530273,14.899999618530273,787358
2005-02-03,15.0,15.550000190734863,14.75,14.899999618530273,14.899999618530273,1231332
2005-02-04,15.100000381469727,15.199999809265137,14.5,14.600000381469727,14.600000381469727,880632
2005-02-07,14.850000381469727,16.0,14.850000381469727,15.149999618530273,15.149999618530273,2838889
2005-02-08,15.399999618530273,15.5,14.850000381469727,14.949999809265137,14.949999809265137,2158586
2005-02-09,15.100000381469727,16.25,15.0,15.899999618530273,15.899999618530273,4813085
2005-02-10,16.0,16.25,15.149999618530273,15.300000190734863,15.300000190734863,3703092
2005-02-11,15.5,16.25,15.399999618530273,15.949999809265137,15.949999809265137,3205904
2005-02-14,16.350000381469727,17.100000381469727,16.0,16.5,16.5,4470786
2005-02-15,16.5,16.850000381469727,16.0,16.100000381469727,16.100000381469727,2206340
2005-02-16,16.25,16.5,15.5,15.649999618530273,15.649999618530273,1464259
2005-02-17,15.75,15.850000381469727,15.050000190734863,15.649999618530273,15.649999618530273,1257271
2005-02-18,15.800000190734863,17.049999237060547,15.75,16.299999237060547,16.299999237060547,8242834
2005-02-21,16.5,16.899999618530273,15.800000190734863,15.850000381469727,15.850000381469727,4125843
2005-02-22,16.5,16.5,15.399999618530273,15.699999809265137,15.699999809265137,2406718
2005-02-23,15.899999618530273,16.149999618530273,15.600000381469727,15.800000190734863,15.800000190734863,1883254
2005-02-24,15.949999809265137,16.0,15.5,15.550000190734863,15.550000190734863,774678
2005-02-25,15.850000381469727,16.25,15.25,15.449999809265137,15.449999809265137,1424255
2005-02-28,15.600000381469727,15.75,15.050000190734863,15.25,15.25,1189619
2005-03-01,15.100000381469727,15.300000190734863,14.850000381469727,14.949999809265137,14.949999809265137,901025
2005-03-02,15.100000381469727,15.75,15.050000190734863,15.5,15.5,1672835
2005-03-03,15.75,16.200000762939453,15.600000381469727,15.850000381469727,15.850000381469727,2242310
2005-03-04,16.100000381469727,16.200000762939453,15.600000381469727,15.850000381469727,15.850000381469727,2342121
2005-03-07,16.0,16.0,15.300000190734863,15.350000381469727,15.350000381469727,1405323
2005-03-08,15.600000381469727,15.600000381469727,15.199999809265137,15.25,15.25,932537
2005-03-09,15.399999618530273,15.449999809265137,14.600000381469727,14.75,14.75,1313165
2005-03-10,14.850000381469727,14.949999809265137,14.5,14.75,14.75,607840
2005-03-11,14.899999618530273,15.399999618530273,14.600000381469727,14.649999618530273,14.649999618530273,1232852
2005-03-14,15.0,15.0,14.100000381469727,14.25,14.25,898447
2005-03-15,14.300000190734863,14.649999618530273,14.149999618530273,14.300000190734863,14.300000190734863,708659
2005-03-16,14.5,14.600000381469727,14.25,14.350000381469727,14.350000381469727,616572
2005-03-17,14.5,14.5,13.800000190734863,14.0,14.0,537054
2005-03-18,14.0,14.100000381469727,13.5,13.75,13.75,782339
2005-03-21,14.0,14.0,13.449999809265137,13.5,13.5,615281
2005-03-22,13.5,13.5,13.100000381469727,13.199999809265137,13.199999809265137,707784
2005-03-23,13.0,13.25,12.550000190734863,12.899999618530273,12.899999618530273,682882
2005-03-24,13.0,13.350000381469727,12.5,12.600000381469727,12.600000381469727,1121207
2005-03-28,12.75,13.600000381469727,12.649999618530273,13.149999618530273,13.149999618530273,901425
2005-03-29,13.5,13.5,12.5,12.649999618530273,12.649999618530273,890164
2005-03-30,12.699999809265137,13.850000381469727,12.699999809265137,13.550000190734863,13.550000190734863,935438
2005-03-31,13.199999809265137,15.699999809265137,13.100000381469727,14.699999809265137,14.699999809265137,2987148
2005-04-01,14.800000190734863,14.949999809265137,13.899999618530273,14.800000190734863,14.800000190734863,1168706
2005-04-04,14.899999618530273,14.899999618530273,14.199999809265137,14.550000190734863,14.550000190734863,1243702
2005-04-05,14.550000190734863,14.75,14.100000381469727,14.199999809265137,14.199999809265137,547716
2005-04-06,14.350000381469727,14.850000381469727,14.0,14.600000381469727,14.600000381469727,854148
2005-04-07,15.0,15.199999809265137,14.5,14.550000190734863,14.550000190734863,1487663
2005-04-08,14.600000381469727,14.850000381469727,14.25,14.300000190734863,14.300000190734863,656028
2005-04-11,14.350000381469727,14.449999809265137,13.800000190734863,13.899999618530273,13.899999618530273,478659
2005-04-12,14.100000381469727,14.149999618530273,13.399999618530273,13.550000190734863,13.550000190734863,1005032
2005-04-13,14.050000190734863,14.050000190734863,13.5,13.649999618530273,13.649999618530273,340911
2005-04-15,13.649999618530273,13.649999618530273,13.100000381469727,13.25,13.25,355608
2005-04-18,13.449999809265137,13.449999809265137,12.850000381469727,13.149999618530273,13.149999618530273,427121
2005-04-19,13.25,13.600000381469727,12.850000381469727,12.949999809265137,12.949999809265137,514838
2005-04-20,13.100000381469727,13.100000381469727,12.649999618530273,12.949999809265137,12.949999809265137,289062
2005-04-21,12.800000190734863,13.100000381469727,12.600000381469727,13.0,13.0,309837
2005-04-22,13.5,13.800000190734863,12.850000381469727,13.0,13.0,281026
2005-04-25,13.100000381469727,13.149999618530273,12.75,12.949999809265137,12.949999809265137,179643
2005-04-26,14.949999809265137,14.949999809265137,12.850000381469727,12.899999618530273,12.899999618530273,270515
2005-04-27,12.949999809265137,13.050000190734863,12.649999618530273,12.699999809265137,12.699999809265137,490187
2005-04-28,12.800000190734863,12.949999809265137,12.550000190734863,12.600000381469727,12.600000381469727,366184
2005-04-29,12.550000190734863,12.699999809265137,12.350000381469727,12.399999618530273,12.399999618530273,260070
2005-05-02,12.449999809265137,12.649999618530273,12.149999618530273,12.25,12.25,213298
2005-05-03,12.600000381469727,12.600000381469727,12.149999618530273,12.399999618530273,12.399999618530273,149390
2005-05-04,12.649999618530273,12.649999618530273,12.350000381469727,12.5,12.5,121157
2005-05-05,12.5,12.800000190734863,12.350000381469727,12.399999618530273,12.399999618530273,310617
2005-05-06,12.5,13.649999618530273,12.5,13.100000381469727,13.100000381469727,1247299
2005-05-09,13.25,13.25,12.800000190734863,12.850000381469727,12.850000381469727,316025
2005-05-10,13.0,13.100000381469727,12.800000190734863,12.899999618530273,12.899999618530273,243814
2005-05-11,12.649999618530273,13.800000190734863,12.649999618530273,13.449999809265137,13.449999809265137,1405055
2005-05-12,13.949999809265137,14.350000381469727,13.800000190734863,13.899999618530273,13.899999618530273,1681381
2005-05-13,14.050000190734863,14.149999618530273,13.75,13.850000381469727,13.850000381469727,687198
2005-05-16,13.899999618530273,14.399999618530273,13.800000190734863,14.100000381469727,14.100000381469727,842216
2005-05-17,14.300000190734863,14.350000381469727,13.699999809265137,13.800000190734863,13.800000190734863,460693
2005-05-18,13.699999809265137,13.949999809265137,13.100000381469727,13.300000190734863,13.300000190734863,588115
2005-05-19,13.75,14.199999809265137,13.550000190734863,13.850000381469727,13.850000381469727,824808
2005-05-20,13.350000381469727,14.0,13.350000381469727,13.800000190734863,13.800000190734863,385199
2005-05-23,13.850000381469727,14.100000381469727,13.75,14.0,14.0,516017
2005-05-24,14.100000381469727,14.25,13.899999618530273,14.149999618530273,14.149999618530273,644412
2005-05-25,14.449999809265137,14.649999618530273,14.100000381469727,14.199999809265137,14.199999809265137,1027399
2005-05-26,14.100000381469727,14.25,13.899999618530273,14.0,14.0,456694
2005-05-27,14.100000381469727,14.199999809265137,13.699999809265137,13.800000190734863,13.800000190734863,525647
2005-05-30,14.050000190734863,14.050000190734863,13.649999618530273,13.699999809265137,13.699999809265137,225810
2005-05-31,13.600000381469727,13.800000190734863,13.600000381469727,13.699999809265137,13.699999809265137,180864
2005-06-01,13.850000381469727,13.899999618530273,13.649999618530273,13.649999618530273,13.649999618530273,231888
2005-06-02,13.649999618530273,13.850000381469727,13.399999618530273,13.449999809265137,13.449999809265137,271086
2005-06-03,13.699999809265137,13.800000190734863,13.25,13.699999809265137,13.699999809265137,358278
2005-06-06,14.399999618530273,14.449999809265137,14.0,14.050000190734863,14.050000190734863,590846
2005-06-07,14.100000381469727,14.5,14.0,14.199999809265137,14.199999809265137,778953
2005-06-08,14.100000381469727,14.399999618530273,14.100000381469727,14.300000190734863,14.300000190734863,616986
2005-06-09,14.350000381469727,15.0,14.149999618530273,14.649999618530273,14.649999618530273,1491269
2005-06-10,14.850000381469727,15.300000190734863,14.25,14.300000190734863,14.300000190734863,915333
2005-06-13,14.550000190734863,14.550000190734863,14.300000190734863,14.350000381469727,14.350000381469727,502512
2005-06-14,14.300000190734863,14.649999618530273,14.300000190734863,14.449999809265137,14.449999809265137,579953
2005-06-15,14.699999809265137,14.800000190734863,14.350000381469727,14.399999618530273,14.399999618530273,644049
2005-06-16,14.350000381469727,15.199999809265137,14.100000381469727,14.5,14.5,2932816
2005-06-17,14.600000381469727,14.699999809265137,13.699999809265137,13.899999618530273,13.899999618530273,762303
2005-06-20,14.149999618530273,14.149999618530273,13.600000381469727,13.649999618530273,13.649999618530273,296335
2005-06-21,13.600000381469727,13.800000190734863,13.550000190734863,13.649999618530273,13.649999618530273,180572
2005-06-22,13.649999618530273,13.75,13.25,13.300000190734863,13.300000190734863,342456
2005-06-23,13.300000190734863,13.649999618530273,13.25,13.600000381469727,13.600000381469727,306118
2005-06-24,13.399999618530273,13.800000190734863,13.350000381469727,13.649999618530273,13.649999618530273,273428
2005-06-27,13.949999809265137,14.100000381469727,13.399999618530273,13.5,13.5,336648
2005-06-28,14.199999809265137,14.850000381469727,13.649999618530273,13.949999809265137,13.949999809265137,3311548
2005-06-29,14.100000381469727,14.199999809265137,13.699999809265137,13.800000190734863,13.800000190734863,504592
2005-06-30,14.0,14.25,13.600000381469727,13.649999618530273,13.649999618530273,430385
2005-07-01,13.800000190734863,13.949999809265137,13.5,13.649999618530273,13.649999618530273,337780
2005-07-04,13.5,14.0,13.5,13.75,13.75,403076
2005-07-05,14.0,14.100000381469727,13.449999809265137,13.5,13.5,490600
2005-07-06,13.699999809265137,13.75,13.5,13.699999809265137,13.699999809265137,332838
2005-07-07,13.699999809265137,13.850000381469727,13.449999809265137,13.5,13.5,341101
2005-07-08,13.600000381469727,13.75,13.449999809265137,13.5,13.5,330526
2005-07-11,13.649999618530273,13.649999618530273,13.399999618530273,13.5,13.5,393134
2005-07-12,13.850000381469727,14.100000381469727,13.449999809265137,13.550000190734863,13.550000190734863,411235
2005-07-13,13.699999809265137,13.699999809265137,13.399999618530273,13.449999809265137,13.449999809265137,302014
2005-07-14,13.600000381469727,13.649999618530273,13.300000190734863,13.350000381469727,13.350000381469727,425625
2005-07-15,13.050000190734863,13.550000190734863,12.25,13.350000381469727,13.350000381469727,331754
2005-07-18,13.25,13.899999618530273,13.25,13.649999618530273,13.649999618530273,723102
2005-07-19,13.649999618530273,14.350000381469727,13.649999618530273,14.100000381469727,14.100000381469727,1503284
2005-07-20,14.600000381469727,14.949999809265137,14.25,14.5,14.5,1862010
2005-07-21,14.800000190734863,14.949999809265137,14.050000190734863,14.100000381469727,14.100000381469727,817644
2005-07-22,14.0,14.399999618530273,13.949999809265137,14.100000381469727,14.100000381469727,482204
2005-07-25,14.149999618530273,14.350000381469727,14.0,14.0,14.0,544851
2005-07-26,14.0,14.149999618530273,13.75,13.850000381469727,13.850000381469727,417168
2005-07-27,13.899999618530273,14.0,13.75,13.850000381469727,13.850000381469727,218220
2005-07-28,13.850000381469727,13.850000381469727,13.850000381469727,13.850000381469727,13.850000381469727,0
2005-07-29,13.600000381469727,14.050000190734863,13.300000190734863,13.600000381469727,13.600000381469727,442188
2005-08-01,13.699999809265137,13.699999809265137,13.350000381469727,13.600000381469727,13.600000381469727,374188
2005-08-02,13.699999809265137,13.949999809265137,13.600000381469727,13.649999618530273,13.649999618530273,333180
2005-08-03,13.800000190734863,13.899999618530273,13.350000381469727,13.449999809265137,13.449999809265137,357180
2005-08-04,13.5,13.600000381469727,13.350000381469727,13.399999618530273,13.399999618530273,246205
2005-08-05,13.550000190734863,13.649999618530273,13.399999618530273,13.449999809265137,13.449999809265137,393879
2005-08-08,13.5,13.699999809265137,13.300000190734863,13.350000381469727,13.350000381469727,478706
2005-08-09,13.399999618530273,13.550000190734863,13.25,13.350000381469727,13.350000381469727,305911
2005-08-10,13.600000381469727,13.899999618530273,13.199999809265137,13.25,13.25,546417
2005-08-11,13.25,14.25,13.199999809265137,13.899999618530273,13.899999618530273,2630292
2005-08-12,14.149999618530273,14.149999618530273,13.5,13.600000381469727,13.600000381469727,1424303
2005-08-16,13.699999809265137,14.0,13.600000381469727,13.75,13.75,964634
2005-08-17,13.800000190734863,14.699999809265137,13.75,14.300000190734863,14.300000190734863,2097457
2005-08-18,14.5,16.799999237060547,14.399999618530273,16.450000762939453,16.450000762939453,12143716
2005-08-19,16.950000762939453,18.100000381469727,16.5,17.549999237060547,17.549999237060547,14206686
2005-08-22,17.75,18.200000762939453,16.549999237060547,16.75,16.75,4965375
2005-08-23,17.0,17.299999237060547,15.649999618530273,15.800000190734863,15.800000190734863,3995971
2005-08-24,15.949999809265137,15.949999809265137,14.899999618530273,15.25,15.25,2709440
2005-08-25,15.399999618530273,16.600000381469727,15.300000190734863,16.200000762939453,16.200000762939453,2093764
2005-08-26,16.600000381469727,16.75,16.049999237060547,16.25,16.25,1265934
2005-08-29,16.799999237060547,16.799999237060547,15.800000190734863,16.299999237060547,16.299999237060547,1180652
2005-08-30,16.600000381469727,16.700000762939453,16.100000381469727,16.25,16.25,1402464
2005-08-31,16.450000762939453,16.450000762939453,15.850000381469727,16.0,16.0,1093279
2005-09-01,16.149999618530273,17.5,16.149999618530273,16.700000762939453,16.700000762939453,3991016
2005-09-02,16.950000762939453,17.600000381469727,16.299999237060547,16.75,16.75,2750123
2005-09-05,16.950000762939453,17.299999237060547,16.5,16.549999237060547,16.549999237060547,1179649
2005-09-06,16.899999618530273,16.950000762939453,16.399999618530273,16.5,16.5,911718
2005-09-08,16.600000381469727,17.450000762939453,16.549999237060547,17.0,17.0,4781394
2005-09-09,17.5,17.5,16.600000381469727,16.75,16.75,2380283
2005-09-12,16.950000762939453,17.399999618530273,16.700000762939453,17.0,17.0,2400385
2005-09-13,17.149999618530273,17.200000762939453,16.850000381469727,16.899999618530273,16.899999618530273,1508149
2005-09-14,17.0,17.100000381469727,16.299999237060547,16.549999237060547,16.549999237060547,1712992
2005-09-15,16.600000381469727,16.950000762939453,16.350000381469727,16.700000762939453,16.700000762939453,932713
2005-09-16,17.0,17.0,16.549999237060547,16.649999618530273,16.649999618530273,1222525
2005-09-19,16.850000381469727,17.0,16.399999618530273,16.450000762939453,16.450000762939453,972350
2005-09-20,16.5,16.5,16.0,16.100000381469727,16.100000381469727,807595
2005-09-21,15.399999618530273,16.100000381469727,14.600000381469727,15.350000381469727,15.350000381469727,1036594
2005-09-22,15.0,15.350000381469727,14.0,14.100000381469727,14.100000381469727,1255432
2005-09-23,14.350000381469727,14.949999809265137,13.800000190734863,14.449999809265137,14.449999809265137,1094717
2005-09-26,14.449999809265137,15.0,14.300000190734863,14.949999809265137,14.949999809265137,559323
2005-09-27,15.899999618530273,15.899999618530273,14.949999809265137,15.149999618530273,15.149999618530273,658725
2005-09-28,15.100000381469727,15.199999809265137,14.649999618530273,14.75,14.75,392746
2005-09-29,15.0,15.0,14.199999809265137,14.25,14.25,526868
2005-09-30,14.25,14.350000381469727,13.75,14.050000190734863,14.050000190734863,550574
2005-10-03,14.0,14.350000381469727,13.899999618530273,14.199999809265137,14.199999809265137,292236
2005-10-04,14.300000190734863,14.600000381469727,14.25,14.350000381469727,14.350000381469727,271498
2005-10-05,14.100000381469727,14.649999618530273,14.100000381469727,14.149999618530273,14.149999618530273,212415
2005-10-06,14.0,14.300000190734863,13.800000190734863,13.949999809265137,13.949999809265137,256152
2005-10-07,13.850000381469727,14.550000190734863,13.850000381469727,14.149999618530273,14.149999618530273,458691
2005-10-10,14.050000190734863,14.350000381469727,13.949999809265137,14.0,14.0,290219
2005-10-11,14.0,14.050000190734863,13.699999809265137,13.75,13.75,335352
2005-10-13,13.75,14.899999618530273,13.600000381469727,14.5,14.5,1114198
2005-10-14,14.399999618530273,14.399999618530273,13.800000190734863,13.899999618530273,13.899999618530273,653523
2005-10-17,14.199999809265137,14.199999809265137,13.550000190734863,13.600000381469727,13.600000381469727,329865
2005-10-18,13.75,13.949999809265137,13.550000190734863,13.649999618530273,13.649999618530273,274281
2005-10-19,13.5,13.600000381469727,13.0,13.100000381469727,13.100000381469727,438879
2005-10-20,13.699999809265137,13.699999809265137,12.199999809265137,12.399999618530273,12.399999618530273,702633
2005-10-21,12.399999618530273,12.399999618530273,9.949999809265137,10.5,10.5,3386429
2005-10-24,10.5,10.5,9.800000190734863,10.199999809265137,10.199999809265137,815217
2005-10-25,10.199999809265137,10.350000381469727,10.0,10.100000381469727,10.100000381469727,477545
2005-10-26,10.0,10.5,10.0,10.149999618530273,10.149999618530273,588984
2005-10-27,10.050000190734863,10.350000381469727,10.050000190734863,10.199999809265137,10.199999809265137,379141
2005-10-28,8.199999809265137,10.199999809265137,8.199999809265137,9.949999809265137,9.949999809265137,533889
2005-10-31,10.199999809265137,10.199999809265137,9.949999809265137,10.0,10.0,414336
2005-11-02,10.100000381469727,10.199999809265137,9.899999618530273,10.0,10.0,260361
2005-11-04,10.0,10.0,10.0,10.0,10.0,0
2005-11-07,10.0,12.0,10.0,11.75,11.75,1747287
2005-11-08,12.100000381469727,12.850000381469727,11.949999809265137,12.050000190734863,12.050000190734863,1900607
2005-11-09,12.300000190734863,13.300000190734863,11.0,13.0,13.0,3894263
2005-11-10,12.899999618530273,13.5,12.25,13.0,13.0,2353181
2005-11-11,13.149999618530273,13.149999618530273,12.5,12.649999618530273,12.649999618530273,601094
2005-11-14,12.899999618530273,12.899999618530273,11.899999618530273,12.050000190734863,12.050000190734863,724574
2005-11-16,12.050000190734863,12.449999809265137,12.0,12.050000190734863,12.050000190734863,256227
2005-11-17,12.100000381469727,12.199999809265137,11.800000190734863,11.850000381469727,11.850000381469727,241468
2005-11-18,11.75,12.149999618530273,11.75,11.850000381469727,11.850000381469727,218749
2005-11-21,11.5,11.800000190734863,11.199999809265137,11.649999618530273,11.649999618530273,195593
2005-11-22,11.600000381469727,11.649999618530273,11.399999618530273,11.399999618530273,11.399999618530273,172753
2005-11-23,11.449999809265137,11.449999809265137,11.100000381469727,11.149999618530273,11.149999618530273,229939
2005-11-24,11.25,11.899999618530273,10.899999618530273,11.300000190734863,11.300000190734863,432703
2005-11-25,11.199999809265137,12.300000190734863,11.0,11.949999809265137,11.949999809265137,700184
2005-11-28,11.600000381469727,12.0,11.449999809265137,11.5,11.5,315650
2005-11-29,11.350000381469727,11.5,11.149999618530273,11.199999809265137,11.199999809265137,349602
2005-11-30,11.199999809265137,11.399999618530273,10.949999809265137,11.0,11.0,365926
2005-12-01,11.149999618530273,11.199999809265137,10.899999618530273,11.050000190734863,11.050000190734863,179322
2005-12-02,11.0,11.149999618530273,10.649999618530273,10.699999809265137,10.699999809265137,272481
2005-12-05,10.800000190734863,11.199999809265137,10.75,10.850000381469727,10.850000381469727,264088
2005-12-06,10.949999809265137,11.0,10.699999809265137,10.75,10.75,221504
2005-12-07,10.600000381469727,11.100000381469727,10.600000381469727,10.800000190734863,10.800000190734863,329370
2005-12-08,10.899999618530273,11.0,10.75,10.800000190734863,10.800000190734863,156303
2005-12-09,10.949999809265137,11.350000381469727,10.75,10.899999618530273,10.899999618530273,424132
2005-12-12,11.0,11.0,10.649999618530273,10.699999809265137,10.699999809265137,204744
2005-12-13,10.649999618530273,10.899999618530273,10.649999618530273,10.699999809265137,10.699999809265137,273037
2005-12-14,10.699999809265137,10.800000190734863,10.350000381469727,10.399999618530273,10.399999618530273,289419
2005-12-15,10.449999809265137,10.550000190734863,10.300000190734863,10.300000190734863,10.300000190734863,360583
2005-12-16,10.100000381469727,10.449999809265137,10.0,10.100000381469727,10.100000381469727,361681
2005-12-19,10.100000381469727,10.5,10.100000381469727,10.399999618530273,10.399999618530273,310966
2005-12-20,10.050000190734863,10.300000190734863,10.0,10.149999618530273,10.149999618530273,271313
2005-12-21,10.149999618530273,10.199999809265137,10.050000190734863,10.050000190734863,10.050000190734863,190442
2005-12-22,10.149999618530273,10.25,10.050000190734863,10.149999618530273,10.149999618530273,186995
2005-12-23,10.25,10.300000190734863,10.100000381469727,10.199999809265137,10.199999809265137,216600
2005-12-26,10.050000190734863,10.350000381469727,9.899999618530273,9.949999809265137,9.949999809265137,311274
2005-12-27,10.050000190734863,10.199999809265137,9.949999809265137,9.949999809265137,9.949999809265137,114161
2005-12-28,10.25,10.25,9.699999809265137,10.0,10.0,266263
2005-12-29,10.0,10.0,9.75,9.800000190734863,9.800000190734863,133712
2005-12-30,10.050000190734863,10.100000381469727,9.949999809265137,9.949999809265137,9.949999809265137,164799
