Date,Open,High,Low,Close,Adj Close,Volume
2013-01-01,14.350000381469727,14.350000381469727,13.699999809265137,13.899999618530273,13.899999618530273,27497
2013-01-02,13.899999618530273,14.25,13.300000190734863,13.449999809265137,13.449999809265137,57800
2013-01-03,13.5,13.949999809265137,13.100000381469727,13.649999618530273,13.649999618530273,49097
2013-01-04,13.699999809265137,14.550000190734863,13.5,14.399999618530273,14.399999618530273,106940
2013-01-07,14.399999618530273,14.5,13.550000190734863,14.100000381469727,14.100000381469727,69687
2013-01-08,14.0,14.0,13.600000381469727,13.649999618530273,13.649999618530273,20895
2013-01-09,13.949999809265137,14.149999618530273,13.600000381469727,13.649999618530273,13.649999618530273,21472
2013-01-10,13.399999618530273,13.899999618530273,13.199999809265137,13.649999618530273,13.649999618530273,13216
2013-01-11,13.800000190734863,13.850000381469727,13.25,13.300000190734863,13.300000190734863,19623
2013-01-14,13.399999618530273,13.649999618530273,13.100000381469727,13.25,13.25,23836
2013-01-15,13.199999809265137,13.649999618530273,13.149999618530273,13.25,13.25,12119
2013-01-16,13.199999809265137,13.300000190734863,12.600000381469727,12.699999809265137,12.699999809265137,26250
2013-01-17,13.300000190734863,13.300000190734863,12.449999809265137,12.550000190734863,12.550000190734863,32413
2013-01-18,12.600000381469727,12.800000190734863,12.399999618530273,12.649999618530273,12.649999618530273,32640
2013-01-21,12.550000190734863,12.800000190734863,12.25,12.399999618530273,12.399999618530273,17116
2013-01-22,12.449999809265137,12.600000381469727,12.0,12.149999618530273,12.149999618530273,19959
2013-01-23,12.100000381469727,12.350000381469727,11.800000190734863,12.050000190734863,12.050000190734863,26181
2013-01-24,12.0,12.100000381469727,11.050000190734863,11.149999618530273,11.149999618530273,31131
2013-01-25,11.050000190734863,11.399999618530273,10.949999809265137,11.199999809265137,11.199999809265137,22852
2013-01-28,11.199999809265137,11.75,11.149999618530273,11.600000381469727,11.600000381469727,12863
2013-01-29,11.399999618530273,11.850000381469727,9.850000381469727,10.800000190734863,10.800000190734863,33828
2013-01-30,11.25,11.399999618530273,10.800000190734863,11.050000190734863,11.050000190734863,15726
2013-01-31,11.449999809265137,12.0,11.199999809265137,11.850000381469727,11.850000381469727,34691
2013-02-01,12.25,12.5,11.75,12.149999618530273,12.149999618530273,30075
2013-02-04,12.0,12.100000381469727,11.5,11.75,11.75,5728
2013-02-05,11.5,11.600000381469727,11.100000381469727,11.149999618530273,11.149999618530273,12365
2013-02-06,11.850000381469727,11.850000381469727,11.0,11.050000190734863,11.050000190734863,11252
2013-02-07,11.100000381469727,11.399999618530273,11.0,11.050000190734863,11.050000190734863,12328
2013-02-08,11.050000190734863,11.199999809265137,10.5,10.5,10.5,17511
2013-02-11,10.550000190734863,11.0,10.5,10.699999809265137,10.699999809265137,5228
2013-02-12,10.5,11.399999618530273,10.300000190734863,10.550000190734863,10.550000190734863,20645
2013-02-13,10.449999809265137,10.899999618530273,10.25,10.300000190734863,10.300000190734863,11613
2013-02-14,10.449999809265137,10.449999809265137,10.050000190734863,10.300000190734863,10.300000190734863,6923
2013-02-15,10.449999809265137,10.449999809265137,9.850000381469727,10.0,10.0,9028
2013-02-18,10.25,10.850000381469727,10.0,10.100000381469727,10.100000381469727,15395
2013-02-19,10.0,10.300000190734863,9.75,9.800000190734863,9.800000190734863,23866
2013-02-20,9.850000381469727,10.300000190734863,9.850000381469727,10.050000190734863,10.050000190734863,13049
2013-02-21,10.0,10.25,9.949999809265137,10.100000381469727,10.100000381469727,9158
2013-02-22,10.399999618530273,10.649999618530273,10.0,10.449999809265137,10.449999809265137,17257
2013-02-25,10.300000190734863,10.600000381469727,9.699999809265137,9.800000190734863,9.800000190734863,23255
2013-02-26,10.199999809265137,10.199999809265137,8.600000381469727,8.800000190734863,8.800000190734863,70280
2013-02-27,8.899999618530273,9.350000381469727,8.699999809265137,8.850000381469727,8.850000381469727,39260
2013-02-28,9.0,9.25,8.75,8.949999809265137,8.949999809265137,12265
2013-03-01,8.75,8.899999618530273,8.199999809265137,8.399999618530273,8.399999618530273,17137
2013-03-04,8.350000381469727,8.649999618530273,8.050000190734863,8.199999809265137,8.199999809265137,26377
2013-03-05,8.050000190734863,9.25,8.050000190734863,8.550000190734863,8.550000190734863,24273
2013-03-06,8.550000190734863,9.0,8.5,8.600000381469727,8.600000381469727,90413
2013-03-07,8.550000190734863,9.0,8.399999618530273,8.5,8.5,19626
2013-03-08,8.350000381469727,8.800000190734863,8.199999809265137,8.5,8.5,30208
2013-03-11,8.449999809265137,8.5,8.149999618530273,8.199999809265137,8.199999809265137,25249
2013-03-12,8.199999809265137,8.600000381469727,8.199999809265137,8.449999809265137,8.449999809265137,9204
2013-03-13,8.25,8.699999809265137,8.199999809265137,8.399999618530273,8.399999618530273,14079
2013-03-14,8.300000190734863,8.550000190734863,8.199999809265137,8.300000190734863,8.300000190734863,8698
2013-03-15,8.300000190734863,8.5,8.0,8.199999809265137,8.199999809265137,55328
2013-03-18,8.050000190734863,8.350000381469727,7.849999904632568,8.149999618530273,8.149999618530273,8360
2013-03-19,8.350000381469727,8.350000381469727,7.5,7.949999809265137,7.949999809265137,11846
2013-03-20,7.699999809265137,7.949999809265137,7.5,7.599999904632568,7.599999904632568,11857
2013-03-21,7.599999904632568,8.149999618530273,7.349999904632568,7.949999809265137,7.949999809265137,11950
2013-03-22,7.599999904632568,7.900000095367432,7.400000095367432,7.449999809265137,7.449999809265137,20805
2013-03-25,7.900000095367432,8.0,7.300000190734863,7.449999809265137,7.449999809265137,47766
2013-03-26,7.25,7.800000190734863,7.199999809265137,7.449999809265137,7.449999809265137,37101
2013-03-28,7.449999809265137,7.599999904632568,7.199999809265137,7.449999809265137,7.449999809265137,27211
2013-04-01,7.550000190734863,8.25,7.550000190734863,7.699999809265137,7.699999809265137,35331
2013-04-02,7.800000190734863,8.5,7.800000190734863,8.300000190734863,8.300000190734863,11961
2013-04-03,8.25,8.600000381469727,8.100000381469727,8.25,8.25,17347
2013-04-04,8.0,8.399999618530273,7.5,7.75,7.75,18928
2013-04-05,7.650000095367432,7.949999809265137,7.599999904632568,7.699999809265137,7.699999809265137,17458
2013-04-08,7.699999809265137,8.0,7.5,7.849999904632568,7.849999904632568,7545
2013-04-09,7.599999904632568,8.149999618530273,7.349999904632568,7.849999904632568,7.849999904632568,22283
2013-04-10,7.900000095367432,7.900000095367432,7.550000190734863,7.849999904632568,7.849999904632568,5291
2013-04-11,7.800000190734863,7.949999809265137,7.650000095367432,7.75,7.75,8444
2013-04-12,8.0,8.0,7.550000190734863,7.650000095367432,7.650000095367432,6265
2013-04-15,7.650000095367432,7.900000095367432,7.650000095367432,7.75,7.75,5243
2013-04-16,7.699999809265137,7.949999809265137,7.599999904632568,7.650000095367432,7.650000095367432,8489
2013-04-17,7.599999904632568,8.25,7.199999809265137,8.199999809265137,8.199999809265137,18609
2013-04-18,8.050000190734863,8.050000190734863,7.900000095367432,8.050000190734863,8.050000190734863,2465
2013-04-22,8.0,8.100000381469727,7.5,7.599999904632568,7.599999904632568,19142
2013-04-23,7.650000095367432,7.800000190734863,7.5,7.699999809265137,7.699999809265137,21301
2013-04-25,7.599999904632568,7.849999904632568,7.599999904632568,7.599999904632568,7.599999904632568,6764
2013-04-26,7.699999809265137,7.699999809265137,7.599999904632568,7.650000095367432,7.650000095367432,8406
2013-04-29,7.699999809265137,7.699999809265137,7.400000095367432,7.599999904632568,7.599999904632568,7769
2013-04-30,7.400000095367432,7.699999809265137,7.25,7.5,7.5,5297
2013-05-02,7.800000190734863,7.800000190734863,7.400000095367432,7.550000190734863,7.550000190734863,6976
2013-05-03,7.449999809265137,7.699999809265137,7.25,7.699999809265137,7.699999809265137,14193
2013-05-06,7.400000095367432,7.699999809265137,7.400000095367432,7.650000095367432,7.650000095367432,18096
2013-05-07,7.800000190734863,7.800000190734863,7.5,7.599999904632568,7.599999904632568,12472
2013-05-08,7.449999809265137,7.699999809265137,7.449999809265137,7.650000095367432,7.650000095367432,13297
2013-05-09,7.550000190734863,7.699999809265137,7.550000190734863,7.599999904632568,7.599999904632568,14785
2013-05-10,7.449999809265137,7.699999809265137,7.449999809265137,7.550000190734863,7.550000190734863,12307
2013-05-13,7.449999809265137,7.650000095367432,7.449999809265137,7.650000095367432,7.650000095367432,9121
2013-05-14,7.5,7.699999809265137,7.5,7.650000095367432,7.650000095367432,34474
2013-05-15,7.650000095367432,7.699999809265137,7.550000190734863,7.550000190734863,7.550000190734863,14510
2013-05-16,7.449999809265137,7.5,7.300000190734863,7.400000095367432,7.400000095367432,15835
2013-05-17,7.300000190734863,7.550000190734863,7.300000190734863,7.5,7.5,3439
2013-05-20,7.400000095367432,7.699999809265137,7.400000095367432,7.699999809265137,7.699999809265137,1178
2013-05-21,7.550000190734863,7.699999809265137,7.349999904632568,7.400000095367432,7.400000095367432,50493
2013-05-22,7.300000190734863,7.400000095367432,7.199999809265137,7.199999809265137,7.199999809265137,7916
2013-05-23,7.599999904632568,7.599999904632568,7.050000190734863,7.150000095367432,7.150000095367432,2430
2013-05-24,7.0,7.400000095367432,7.0,7.300000190734863,7.300000190734863,7883
2013-05-27,7.150000095367432,7.400000095367432,7.099999904632568,7.199999809265137,7.199999809265137,7880
2013-05-28,6.650000095367432,7.550000190734863,6.650000095367432,7.050000190734863,7.050000190734863,5982
2013-05-29,7.099999904632568,7.099999904632568,7.0,7.0,7.0,465
2013-05-30,7.0,7.300000190734863,6.599999904632568,6.900000095367432,6.900000095367432,15430
2013-05-31,6.849999904632568,7.050000190734863,6.849999904632568,6.849999904632568,6.849999904632568,7135
2013-06-03,6.699999809265137,6.849999904632568,6.650000095367432,6.75,6.75,9354
2013-06-04,6.800000190734863,6.849999904632568,6.699999809265137,6.75,6.75,3832
2013-06-05,6.699999809265137,6.75,6.199999809265137,6.550000190734863,6.550000190734863,1416
2013-06-06,6.400000095367432,7.099999904632568,6.199999809265137,6.800000190734863,6.800000190734863,3396
2013-06-07,7.150000095367432,7.199999809265137,6.550000190734863,6.849999904632568,6.849999904632568,26733
2013-06-10,6.699999809265137,7.150000095367432,6.699999809265137,6.900000095367432,6.900000095367432,9842
2013-06-11,6.75,6.800000190734863,6.449999809265137,6.550000190734863,6.550000190734863,5757
2013-06-12,6.300000190734863,6.949999809265137,6.25,6.5,6.5,2314
2013-06-13,6.300000190734863,6.849999904632568,6.199999809265137,6.199999809265137,6.199999809265137,5714
2013-06-14,6.0,6.800000190734863,5.800000190734863,6.199999809265137,6.199999809265137,3382
2013-06-17,6.5,6.75,6.099999904632568,6.300000190734863,6.300000190734863,4856
2013-06-18,7.0,7.0,6.099999904632568,6.400000095367432,6.400000095367432,8953
2013-06-19,6.949999809265137,6.949999809265137,6.25,6.400000095367432,6.400000095367432,4785
2013-06-20,6.25,6.599999904632568,5.650000095367432,6.349999904632568,6.349999904632568,16154
2013-06-21,6.199999809265137,6.199999809265137,5.75,6.099999904632568,6.099999904632568,2706
2013-06-24,6.0,6.0,5.300000190734863,5.400000095367432,5.400000095367432,17495
2013-06-25,5.25,6.0,5.25,5.599999904632568,5.599999904632568,8478
2013-06-26,5.25,5.650000095367432,5.25,5.300000190734863,5.300000190734863,8471
2013-06-27,5.449999809265137,5.449999809265137,5.150000095367432,5.300000190734863,5.300000190734863,3075
2013-06-28,5.199999809265137,5.400000095367432,5.050000190734863,5.199999809265137,5.199999809265137,8090
2013-07-01,5.050000190734863,5.949999809265137,5.050000190734863,5.75,5.75,20947
2013-07-02,5.5,5.800000190734863,5.5,5.75,5.75,8024
2013-07-03,5.599999904632568,5.75,5.599999904632568,5.599999904632568,5.599999904632568,3447
2013-07-04,5.550000190734863,5.650000095367432,5.25,5.300000190734863,5.300000190734863,8139
2013-07-05,5.300000190734863,5.5,5.300000190734863,5.449999809265137,5.449999809265137,8502
2013-07-08,5.699999809265137,5.699999809265137,5.300000190734863,5.449999809265137,5.449999809265137,4248
2013-07-09,5.900000095367432,5.900000095367432,5.199999809265137,5.300000190734863,5.300000190734863,10905
2013-07-10,5.5,5.5,5.300000190734863,5.349999904632568,5.349999904632568,7682
2013-07-11,5.349999904632568,5.449999809265137,5.349999904632568,5.400000095367432,5.400000095367432,5236
2013-07-12,5.5,5.5,5.199999809265137,5.349999904632568,5.349999904632568,5480
2013-07-15,5.199999809265137,5.449999809265137,5.199999809265137,5.349999904632568,5.349999904632568,10659
2013-07-16,5.349999904632568,5.400000095367432,5.099999904632568,5.349999904632568,5.349999904632568,2031
2013-07-17,5.400000095367432,5.400000095367432,5.199999809265137,5.349999904632568,5.349999904632568,6138
2013-07-18,5.25,5.5,5.25,5.5,5.5,9370
2013-07-19,5.5,5.5,5.300000190734863,5.300000190734863,5.300000190734863,10583
2013-07-22,5.199999809265137,5.349999904632568,5.0,5.050000190734863,5.050000190734863,7451
2013-07-23,5.400000095367432,5.449999809265137,4.800000190734863,4.900000095367432,4.900000095367432,18663
2013-07-24,5.449999809265137,5.449999809265137,4.449999809265137,4.5,4.5,42891
2013-07-25,4.449999809265137,4.949999809265137,4.099999904632568,4.849999904632568,4.849999904632568,7908
2013-07-26,4.949999809265137,4.949999809265137,4.550000190734863,4.75,4.75,12431
2013-07-29,4.699999809265137,4.699999809265137,4.25,4.25,4.25,7440
2013-07-30,4.199999809265137,4.449999809265137,4.150000095367432,4.25,4.25,8684
2013-07-31,4.0,4.449999809265137,3.8499999046325684,4.050000190734863,4.050000190734863,21394
2013-08-01,4.0,4.849999904632568,4.0,4.699999809265137,4.699999809265137,14480
2013-08-02,5.0,5.300000190734863,4.599999904632568,5.25,5.25,35308
2013-08-05,5.099999904632568,5.099999904632568,4.650000095367432,4.75,4.75,7691
2013-08-06,4.699999809265137,4.75,4.199999809265137,4.400000095367432,4.400000095367432,12192
2013-08-07,4.75,5.150000095367432,4.300000190734863,4.699999809265137,4.699999809265137,24133
2013-08-08,4.5,4.699999809265137,4.300000190734863,4.5,4.5,4840
2013-08-12,4.449999809265137,5.0,4.449999809265137,4.699999809265137,4.699999809265137,9080
2013-08-13,5.25,5.25,4.650000095367432,4.800000190734863,4.800000190734863,14760
2013-08-14,5.0,5.099999904632568,4.650000095367432,4.699999809265137,4.699999809265137,7323
2013-08-16,4.650000095367432,5.300000190734863,4.599999904632568,4.650000095367432,4.650000095367432,15246
2013-08-19,4.599999904632568,4.900000095367432,4.349999904632568,4.400000095367432,4.400000095367432,7710
2013-08-20,4.300000190734863,4.800000190734863,4.300000190734863,4.550000190734863,4.550000190734863,4756
2013-08-21,4.400000095367432,4.800000190734863,4.349999904632568,4.75,4.75,6343
2013-08-22,4.800000190734863,4.800000190734863,4.5,4.599999904632568,4.599999904632568,7630
2013-08-23,4.599999904632568,4.900000095367432,4.5,4.800000190734863,4.800000190734863,6528
2013-08-26,4.949999809265137,4.949999809265137,4.550000190734863,4.699999809265137,4.699999809265137,2532
2013-08-27,4.5,4.900000095367432,4.199999809265137,4.400000095367432,4.400000095367432,24730
2013-08-28,4.300000190734863,4.800000190734863,4.0,4.699999809265137,4.699999809265137,8132
2013-08-29,4.5,4.800000190734863,4.300000190734863,4.75,4.75,6808
2013-08-30,4.800000190734863,4.949999809265137,4.349999904632568,4.5,4.5,33351
2013-09-02,4.5,4.699999809265137,4.449999809265137,4.5,4.5,14072
2013-09-03,4.5,4.699999809265137,4.5,4.650000095367432,4.650000095367432,4570
2013-09-04,4.5,4.650000095367432,4.300000190734863,4.5,4.5,8422
2013-09-05,4.650000095367432,4.650000095367432,4.5,4.650000095367432,4.650000095367432,6519
2013-09-06,4.650000095367432,4.849999904632568,4.650000095367432,4.800000190734863,4.800000190734863,6891
2013-09-10,4.949999809265137,4.949999809265137,4.699999809265137,4.699999809265137,4.699999809265137,9364
2013-09-11,4.599999904632568,4.900000095367432,4.449999809265137,4.900000095367432,4.900000095367432,12187
2013-09-12,4.75,5.849999904632568,4.75,5.849999904632568,5.849999904632568,93708
2013-09-13,6.0,6.900000095367432,5.849999904632568,6.75,6.75,88988
2013-09-16,7.199999809265137,7.199999809265137,6.099999904632568,6.099999904632568,6.099999904632568,23969
2013-09-17,5.5,5.949999809265137,5.5,5.650000095367432,5.650000095367432,17509
2013-09-18,5.5,6.050000190734863,5.5,6.0,6.0,28696
2013-09-19,6.0,6.449999809265137,5.800000190734863,6.0,6.0,13346
2013-09-20,6.0,6.300000190734863,5.5,5.599999904632568,5.599999904632568,10518
2013-09-23,5.599999904632568,5.599999904632568,5.25,5.25,5.25,7789
2013-09-24,5.099999904632568,5.650000095367432,5.050000190734863,5.25,5.25,4515
2013-09-25,5.150000095367432,5.400000095367432,5.150000095367432,5.300000190734863,5.300000190734863,5742
2013-09-26,5.650000095367432,5.650000095367432,5.300000190734863,5.449999809265137,5.449999809265137,4259
2013-09-27,5.699999809265137,5.900000095367432,5.300000190734863,5.300000190734863,5.300000190734863,12265
2013-09-30,5.0,5.599999904632568,5.0,5.300000190734863,5.300000190734863,6148
2013-10-01,5.25,5.650000095367432,5.0,5.5,5.5,9938
2013-10-03,5.599999904632568,6.050000190734863,5.550000190734863,6.050000190734863,6.050000190734863,46881
2013-10-04,6.0,6.349999904632568,5.900000095367432,6.050000190734863,6.050000190734863,21494
2013-10-07,5.800000190734863,6.300000190734863,5.800000190734863,6.150000095367432,6.150000095367432,5687
2013-10-08,6.0,6.099999904632568,5.949999809265137,6.050000190734863,6.050000190734863,3846
2013-10-09,5.699999809265137,6.349999904632568,5.699999809265137,6.199999809265137,6.199999809265137,4231
2013-10-10,6.25,6.25,6.0,6.150000095367432,6.150000095367432,21578
2013-10-11,6.099999904632568,6.300000190734863,6.0,6.050000190734863,6.050000190734863,12345
2013-10-14,5.900000095367432,6.050000190734863,5.900000095367432,5.949999809265137,5.949999809265137,3152
2013-10-15,5.849999904632568,6.0,5.800000190734863,6.0,6.0,4620
2013-10-17,5.699999809265137,5.900000095367432,5.699999809265137,5.849999904632568,5.849999904632568,4326
2013-10-18,5.650000095367432,6.0,5.599999904632568,5.650000095367432,5.650000095367432,15292
2013-10-21,6.050000190734863,6.050000190734863,5.699999809265137,5.75,5.75,5091
2013-10-22,5.949999809265137,6.0,5.75,6.0,6.0,12823
2013-10-23,5.800000190734863,6.199999809265137,5.800000190734863,6.0,6.0,6578
2013-10-24,6.099999904632568,6.150000095367432,5.849999904632568,5.900000095367432,5.900000095367432,14096
2013-10-25,6.0,6.199999809265137,5.949999809265137,5.949999809265137,5.949999809265137,13492
2013-10-28,6.5,6.5,5.849999904632568,5.949999809265137,5.949999809265137,7387
2013-10-29,5.900000095367432,6.150000095367432,5.849999904632568,6.0,6.0,5560
2013-10-30,6.150000095367432,6.550000190734863,6.050000190734863,6.25,6.25,17179
2013-10-31,6.099999904632568,6.199999809265137,6.0,6.0,6.0,4511
2013-11-01,6.099999904632568,6.099999904632568,5.849999904632568,6.0,6.0,9613
2013-11-05,5.849999904632568,6.5,5.800000190734863,6.349999904632568,6.349999904632568,14367
2013-11-06,6.400000095367432,6.900000095367432,6.150000095367432,6.75,6.75,49753
2013-11-07,6.849999904632568,6.849999904632568,6.150000095367432,6.150000095367432,6.150000095367432,22055
2013-11-08,6.099999904632568,6.550000190734863,6.050000190734863,6.449999809265137,6.449999809265137,25202
2013-11-11,6.75,6.75,6.199999809265137,6.199999809265137,6.199999809265137,18416
2013-11-12,6.199999809265137,6.5,6.050000190734863,6.400000095367432,6.400000095367432,12938
2013-11-13,6.25,6.400000095367432,6.050000190734863,6.050000190734863,6.050000190734863,8229
2013-11-14,6.150000095367432,6.349999904632568,5.900000095367432,6.050000190734863,6.050000190734863,18087
2013-11-18,6.099999904632568,6.300000190734863,5.900000095367432,6.199999809265137,6.199999809265137,12112
2013-11-19,6.599999904632568,6.599999904632568,6.349999904632568,6.349999904632568,6.349999904632568,12042
2013-11-20,6.449999809265137,6.550000190734863,6.349999904632568,6.449999809265137,6.449999809265137,6241
2013-11-21,6.050000190734863,6.599999904632568,6.050000190734863,6.449999809265137,6.449999809265137,6010
2013-11-22,6.550000190734863,6.550000190734863,6.25,6.300000190734863,6.300000190734863,2480
2013-11-25,6.199999809265137,6.449999809265137,6.099999904632568,6.25,6.25,3671
2013-11-26,6.650000095367432,6.650000095367432,6.25,6.349999904632568,6.349999904632568,7326
2013-11-27,6.150000095367432,6.400000095367432,6.150000095367432,6.150000095367432,6.150000095367432,4227
2013-11-28,6.199999809265137,6.400000095367432,6.199999809265137,6.349999904632568,6.349999904632568,8680
2013-11-29,6.099999904632568,6.449999809265137,6.099999904632568,6.449999809265137,6.449999809265137,7216
2013-12-02,6.300000190734863,6.5,6.099999904632568,6.199999809265137,6.199999809265137,17568
2013-12-03,6.099999904632568,6.349999904632568,5.599999904632568,6.150000095367432,6.150000095367432,8194
2013-12-04,6.199999809265137,6.300000190734863,6.150000095367432,6.300000190734863,6.300000190734863,3553
2013-12-05,6.099999904632568,6.349999904632568,5.949999809265137,6.199999809265137,6.199999809265137,15465
2013-12-06,6.150000095367432,6.349999904632568,6.050000190734863,6.199999809265137,6.199999809265137,8282
2013-12-09,6.099999904632568,6.25,5.900000095367432,6.199999809265137,6.199999809265137,13325
2013-12-10,6.099999904632568,6.199999809265137,5.949999809265137,6.099999904632568,6.099999904632568,15118
2013-12-11,6.050000190734863,6.150000095367432,5.900000095367432,6.099999904632568,6.099999904632568,13278
2013-12-12,6.0,6.150000095367432,5.900000095367432,5.949999809265137,5.949999809265137,1413
2013-12-13,5.949999809265137,6.099999904632568,5.900000095367432,5.900000095367432,5.900000095367432,9147
2013-12-16,6.0,6.150000095367432,5.900000095367432,6.0,6.0,2923
2013-12-17,5.900000095367432,6.150000095367432,5.699999809265137,5.949999809265137,5.949999809265137,4560
2013-12-18,6.0,6.0,5.449999809265137,5.800000190734863,5.800000190734863,31735
2013-12-19,5.800000190734863,5.900000095367432,5.599999904632568,5.849999904632568,5.849999904632568,2063
2013-12-20,5.75,5.849999904632568,5.599999904632568,5.650000095367432,5.650000095367432,8380
2013-12-23,6.099999904632568,6.099999904632568,5.650000095367432,5.699999809265137,5.699999809265137,10579
2013-12-24,5.699999809265137,6.099999904632568,5.699999809265137,6.050000190734863,6.050000190734863,12916
2013-12-26,6.050000190734863,6.5,6.050000190734863,6.400000095367432,6.400000095367432,22705
2013-12-27,6.5,6.849999904632568,6.300000190734863,6.75,6.75,58501
2013-12-30,6.650000095367432,6.900000095367432,6.5,6.650000095367432,6.650000095367432,23809
