Date,Open,High,Low,Close,Adj Close,Volume
2008-01-01,40.04999923706055,44.79999923706055,39.150001525878906,42.400001525878906,42.400001525878906,900478
2008-01-02,42.849998474121094,44.5,41.04999923706055,42.150001525878906,42.150001525878906,379854
2008-01-03,41.900001525878906,44.79999923706055,41.29999923706055,41.849998474121094,41.849998474121094,318290
2008-01-04,43.0,44.0,41.0,41.25,41.25,227067
2008-01-07,40.099998474121094,48.0,40.099998474121094,46.400001525878906,46.400001525878906,1339823
2008-01-08,47.349998474121094,48.349998474121094,41.0,41.849998474121094,41.849998474121094,1130111
2008-01-09,41.5,46.0,39.0,42.599998474121094,42.599998474121094,751066
2008-01-10,43.25,45.900001525878906,40.099998474121094,40.70000076293945,40.70000076293945,714339
2008-01-11,41.0,41.79999923706055,39.25,39.900001525878906,39.900001525878906,336187
2008-01-14,37.54999923706055,41.75,37.54999923706055,40.0,40.0,176244
2008-01-15,40.75,41.900001525878906,38.599998474121094,39.150001525878906,39.150001525878906,272095
2008-01-16,38.900001525878906,39.0,36.75,37.20000076293945,37.20000076293945,193168
2008-01-17,37.95000076293945,39.0,37.150001525878906,37.95000076293945,37.95000076293945,101029
2008-01-18,37.099998474121094,38.349998474121094,35.0,35.54999923706055,35.54999923706055,168587
2008-01-21,35.400001525878906,35.400001525878906,28.450000762939453,28.450000762939453,28.450000762939453,164284
2008-01-22,29.299999237060547,29.299999237060547,23.399999618530273,24.600000381469727,24.600000381469727,132531
2008-01-23,27.0,29.549999237060547,25.0,28.549999237060547,28.549999237060547,148264
2008-01-24,31.850000381469727,32.0,26.049999237060547,26.700000762939453,26.700000762939453,94184
2008-01-25,28.0,29.899999618530273,27.0,28.850000381469727,28.850000381469727,75690
2008-01-28,27.450000762939453,29.899999618530273,27.450000762939453,29.25,29.25,71353
2008-01-29,28.5,30.75,28.25,28.549999237060547,28.549999237060547,75504
2008-01-30,28.25,28.950000762939453,27.200000762939453,27.5,27.5,64880
2008-01-31,27.0,27.75,26.25,26.899999618530273,26.899999618530273,64851
2008-02-01,27.25,27.700000762939453,26.049999237060547,27.399999618530273,27.399999618530273,31688
2008-02-04,28.850000381469727,28.899999618530273,27.700000762939453,28.25,28.25,48496
2008-02-05,28.0,29.0,28.0,28.75,28.75,34869
2008-02-06,28.299999237060547,28.649999618530273,27.049999237060547,28.0,28.0,60980
2008-02-07,28.0,29.950000762939453,27.5,27.850000381469727,27.850000381469727,94162
2008-02-08,27.549999237060547,28.25,27.0,27.5,27.5,26694
2008-02-11,28.0,28.399999618530273,25.799999237060547,26.149999618530273,26.149999618530273,34178
2008-02-12,25.399999618530273,27.950000762939453,25.200000762939453,25.75,25.75,38371
2008-02-13,25.200000762939453,26.0,25.049999237060547,25.200000762939453,25.200000762939453,31139
2008-02-14,26.25,26.75,25.549999237060547,26.200000762939453,26.200000762939453,26333
2008-02-15,25.899999618530273,31.450000762939453,25.200000762939453,31.450000762939453,31.450000762939453,170001
2008-02-18,33.0,37.75,32.5,37.150001525878906,37.150001525878906,976624
2008-02-19,38.54999923706055,40.20000076293945,36.099998474121094,37.25,37.25,1172233
2008-02-20,36.0,37.25,34.54999923706055,34.79999923706055,34.79999923706055,266325
2008-02-21,35.45000076293945,36.5,34.099998474121094,34.5,34.5,141104
2008-02-22,34.0,34.0,32.5,33.0,33.0,74141
2008-02-25,33.599998474121094,34.0,31.700000762939453,32.150001525878906,32.150001525878906,60451
2008-02-26,32.5,33.900001525878906,30.950000762939453,31.649999618530273,31.649999618530273,116312
2008-02-27,31.799999237060547,33.75,31.0,32.0,32.0,114921
2008-02-28,32.150001525878906,32.150001525878906,31.049999237060547,31.549999237060547,31.549999237060547,52274
2008-02-29,31.049999237060547,34.20000076293945,31.049999237060547,32.599998474121094,32.599998474121094,204892
2008-03-03,31.0,33.400001525878906,30.0,30.899999618530273,30.899999618530273,70049
2008-03-04,30.700000762939453,31.700000762939453,28.100000381469727,29.299999237060547,29.299999237060547,83764
2008-03-05,29.299999237060547,30.0,28.25,28.700000762939453,28.700000762939453,69238
2008-03-07,28.049999237060547,28.049999237060547,26.100000381469727,26.399999618530273,26.399999618530273,87666
2008-03-10,25.200000762939453,28.899999618530273,25.0,28.25,28.25,64091
2008-03-11,28.600000381469727,29.899999618530273,27.600000381469727,29.049999237060547,29.049999237060547,81954
2008-03-12,29.950000762939453,31.75,28.700000762939453,28.950000762939453,28.950000762939453,124170
2008-03-13,28.049999237060547,28.700000762939453,26.799999237060547,27.399999618530273,27.399999618530273,113265
2008-03-14,27.149999618530273,28.700000762939453,26.700000762939453,27.899999618530273,27.899999618530273,56191
2008-03-17,26.100000381469727,27.25,26.100000381469727,26.950000762939453,26.950000762939453,43111
2008-03-18,25.0,27.75,25.0,26.549999237060547,26.549999237060547,65246
2008-03-19,27.299999237060547,28.0,26.299999237060547,27.100000381469727,27.100000381469727,54333
2008-03-24,26.299999237060547,27.399999618530273,25.100000381469727,26.149999618530273,26.149999618530273,29943
2008-03-25,28.0,28.0,26.0,27.75,27.75,78429
2008-03-26,29.899999618530273,29.950000762939453,27.100000381469727,28.200000762939453,28.200000762939453,38933
2008-03-27,27.5,28.75,27.200000762939453,28.200000762939453,28.200000762939453,30684
2008-03-28,27.350000381469727,30.399999618530273,27.350000381469727,29.600000381469727,29.600000381469727,60768
2008-03-31,34.0,34.0,28.399999618530273,29.600000381469727,29.600000381469727,73394
2008-04-01,30.299999237060547,30.299999237060547,29.299999237060547,29.600000381469727,29.600000381469727,32615
2008-04-02,30.0,30.700000762939453,29.5,29.75,29.75,25168
2008-04-03,29.799999237060547,33.5,29.100000381469727,31.799999237060547,31.799999237060547,61600
2008-04-04,33.0,34.0,30.399999618530273,30.799999237060547,30.799999237060547,49417
2008-04-07,30.049999237060547,31.899999618530273,30.049999237060547,31.5,31.5,202128
2008-04-08,31.549999237060547,31.899999618530273,31.100000381469727,31.700000762939453,31.700000762939453,26600
2008-04-09,32.900001525878906,32.900001525878906,31.0,32.0,32.0,31628
2008-04-10,33.0,34.25,31.600000381469727,32.70000076293945,32.70000076293945,138906
2008-04-11,33.900001525878906,34.599998474121094,32.900001525878906,34.099998474121094,34.099998474121094,111130
2008-04-15,33.0,34.599998474121094,33.0,34.04999923706055,34.04999923706055,76012
2008-04-16,34.29999923706055,36.25,34.0,35.5,35.5,157501
2008-04-17,36.0,36.70000076293945,35.099998474121094,36.0,36.0,158674
2008-04-21,35.849998474121094,37.20000076293945,35.54999923706055,35.79999923706055,35.79999923706055,56516
2008-04-22,35.5,36.599998474121094,35.099998474121094,36.0,36.0,133989
2008-04-23,36.0,36.29999923706055,34.0,36.0,36.0,169563
2008-04-24,36.349998474121094,37.54999923706055,35.5,36.20000076293945,36.20000076293945,86267
2008-04-25,36.900001525878906,41.79999923706055,35.54999923706055,40.54999923706055,40.54999923706055,1086228
2008-04-28,41.5,47.25,38.54999923706055,45.95000076293945,45.95000076293945,2137620
2008-04-29,47.0,47.0,41.29999923706055,42.099998474121094,42.099998474121094,874049
2008-04-30,42.70000076293945,42.95000076293945,39.0,39.400001525878906,39.400001525878906,386367
2008-05-02,39.900001525878906,40.0,37.650001525878906,38.95000076293945,38.95000076293945,157578
2008-05-05,39.900001525878906,42.20000076293945,38.0,39.650001525878906,39.650001525878906,269898
2008-05-06,40.349998474121094,40.95000076293945,39.0,39.25,39.25,58712
2008-05-07,41.45000076293945,41.45000076293945,38.5,39.04999923706055,39.04999923706055,66554
2008-05-08,38.349998474121094,38.900001525878906,38.0,38.150001525878906,38.150001525878906,38891
2008-05-09,38.0,38.5,37.0,37.0,37.0,45925
2008-05-12,36.79999923706055,37.0,36.0,36.349998474121094,36.349998474121094,64657
2008-05-13,36.0,38.79999923706055,36.0,36.45000076293945,36.45000076293945,97554
2008-05-14,37.5,37.95000076293945,36.099998474121094,36.75,36.75,20034
2008-05-15,37.20000076293945,37.75,36.70000076293945,37.099998474121094,37.099998474121094,28175
2008-05-16,37.0,38.29999923706055,37.0,37.5,37.5,51322
2008-05-20,37.5,39.349998474121094,37.45000076293945,37.900001525878906,37.900001525878906,48845
2008-05-21,37.0,40.349998474121094,37.0,39.20000076293945,39.20000076293945,110011
2008-05-22,39.5,40.25,37.900001525878906,38.04999923706055,38.04999923706055,85638
2008-05-23,38.25,40.20000076293945,37.70000076293945,37.900001525878906,37.900001525878906,89947
2008-05-26,36.099998474121094,37.599998474121094,36.0,37.04999923706055,37.04999923706055,33985
2008-05-27,37.150001525878906,38.0,37.099998474121094,37.45000076293945,37.45000076293945,59824
2008-05-28,37.0,38.650001525878906,36.650001525878906,37.04999923706055,37.04999923706055,31438
2008-05-29,36.70000076293945,38.5,36.650001525878906,37.0,37.0,19787
2008-05-30,37.04999923706055,39.400001525878906,37.0,37.400001525878906,37.400001525878906,91569
2008-06-02,37.5,37.900001525878906,35.0,35.54999923706055,35.54999923706055,51987
2008-06-03,36.79999923706055,36.79999923706055,33.79999923706055,35.20000076293945,35.20000076293945,38069
2008-06-04,34.04999923706055,36.599998474121094,33.0,33.70000076293945,33.70000076293945,24640
2008-06-05,33.099998474121094,34.5,32.599998474121094,33.150001525878906,33.150001525878906,27289
2008-06-06,33.400001525878906,33.900001525878906,32.04999923706055,32.29999923706055,32.29999923706055,22388
2008-06-09,30.399999618530273,32.400001525878906,30.399999618530273,32.099998474121094,32.099998474121094,24803
2008-06-10,32.70000076293945,32.70000076293945,31.649999618530273,31.75,31.75,8235
2008-06-11,34.5,34.5,32.0,32.150001525878906,32.150001525878906,50726
2008-06-12,31.299999237060547,33.29999923706055,31.200000762939453,32.45000076293945,32.45000076293945,23287
2008-06-13,33.0,33.0,31.200000762939453,32.150001525878906,32.150001525878906,9127
2008-06-16,32.849998474121094,35.099998474121094,31.899999618530273,33.0,33.0,114918
2008-06-17,32.79999923706055,33.5,32.20000076293945,33.20000076293945,33.20000076293945,19962
2008-06-18,33.150001525878906,33.849998474121094,32.400001525878906,32.599998474121094,32.599998474121094,11335
2008-06-19,32.5,33.25,32.04999923706055,32.849998474121094,32.849998474121094,18146
2008-06-20,32.20000076293945,32.79999923706055,30.049999237060547,31.350000381469727,31.350000381469727,15119
2008-06-23,30.100000381469727,32.0,29.0,29.600000381469727,29.600000381469727,17671
2008-06-24,29.0,30.5,29.0,30.049999237060547,30.049999237060547,10199
2008-06-25,29.25,33.0,29.25,31.5,31.5,29362
2008-06-26,32.5,32.5,30.100000381469727,30.399999618530273,30.399999618530273,16156
2008-06-27,28.0,30.950000762939453,28.0,29.200000762939453,29.200000762939453,32219
2008-06-30,29.0,30.5,27.049999237060547,27.600000381469727,27.600000381469727,21464
2008-07-01,28.100000381469727,28.100000381469727,25.5,26.100000381469727,26.100000381469727,35944
2008-07-02,25.600000381469727,27.0,24.5,26.75,26.75,22166
2008-07-03,26.5,26.5,25.5,25.799999237060547,25.799999237060547,18115
2008-07-04,25.299999237060547,27.350000381469727,25.299999237060547,27.049999237060547,27.049999237060547,12623
2008-07-07,28.0,28.299999237060547,27.149999618530273,28.0,28.0,15809
2008-07-08,28.600000381469727,28.600000381469727,26.600000381469727,28.25,28.25,13481
2008-07-09,28.5,29.25,27.799999237060547,28.950000762939453,28.950000762939453,12817
2008-07-10,28.5,29.299999237060547,28.100000381469727,29.149999618530273,29.149999618530273,10819
2008-07-11,28.200000762939453,29.450000762939453,27.950000762939453,28.5,28.5,10929
2008-07-14,28.5,28.75,27.5,28.200000762939453,28.200000762939453,8747
2008-07-15,28.200000762939453,28.200000762939453,26.700000762939453,26.850000381469727,26.850000381469727,18530
2008-07-16,27.0,27.399999618530273,26.5,26.799999237060547,26.799999237060547,6467
2008-07-17,27.049999237060547,29.25,27.049999237060547,28.450000762939453,28.450000762939453,25222
2008-07-18,28.5,32.0,28.0,29.450000762939453,29.450000762939453,49997
2008-07-21,28.350000381469727,29.149999618530273,28.299999237060547,28.549999237060547,28.549999237060547,6887
2008-07-22,28.049999237060547,29.25,28.049999237060547,28.399999618530273,28.399999618530273,15334
2008-07-23,28.5,30.0,28.25,28.649999618530273,28.649999618530273,25254
2008-07-24,30.0,30.049999237060547,28.5,28.850000381469727,28.850000381469727,20291
2008-07-25,29.0,29.0,27.5,28.700000762939453,28.700000762939453,12642
2008-07-28,28.899999618530273,29.200000762939453,28.149999618530273,28.600000381469727,28.600000381469727,31457
2008-07-29,28.700000762939453,29.5,28.25,28.350000381469727,28.350000381469727,11070
2008-07-30,28.450000762939453,29.450000762939453,28.450000762939453,28.75,28.75,4846
2008-07-31,28.350000381469727,28.950000762939453,28.25,28.399999618530273,28.399999618530273,10214
2008-08-01,27.549999237060547,28.399999618530273,27.549999237060547,28.149999618530273,28.149999618530273,6012
2008-08-04,28.5,30.25,28.25,29.200000762939453,29.200000762939453,16300
2008-08-05,29.100000381469727,29.950000762939453,29.100000381469727,29.700000762939453,29.700000762939453,16922
2008-08-06,30.0,31.600000381469727,29.600000381469727,29.75,29.75,35100
2008-08-07,30.799999237060547,30.850000381469727,29.25,29.600000381469727,29.600000381469727,9600
2008-08-08,30.399999618530273,30.399999618530273,29.149999618530273,29.549999237060547,29.549999237060547,14151
2008-08-11,29.75,30.899999618530273,29.75,30.649999618530273,30.649999618530273,26218
2008-08-12,33.0,33.0,29.899999618530273,30.049999237060547,30.049999237060547,33209
2008-08-13,28.799999237060547,30.75,28.799999237060547,30.200000762939453,30.200000762939453,13410
2008-08-14,29.350000381469727,30.399999618530273,29.299999237060547,29.600000381469727,29.600000381469727,11958
2008-08-18,29.100000381469727,29.950000762939453,29.100000381469727,29.450000762939453,29.450000762939453,5920
2008-08-19,28.399999618530273,29.850000381469727,27.899999618530273,28.399999618530273,28.399999618530273,20451
2008-08-20,29.899999618530273,29.899999618530273,28.5,28.850000381469727,28.850000381469727,4001
2008-08-21,29.100000381469727,29.100000381469727,28.149999618530273,28.200000762939453,28.200000762939453,5525
2008-08-22,28.200000762939453,28.899999618530273,28.0,28.299999237060547,28.299999237060547,7758
2008-08-25,29.0,30.149999618530273,28.25,28.549999237060547,28.549999237060547,5237
2008-08-26,28.25,29.0,28.200000762939453,28.5,28.5,6699
2008-08-27,28.950000762939453,29.0,28.299999237060547,28.399999618530273,28.399999618530273,5967
2008-08-28,28.200000762939453,28.899999618530273,28.100000381469727,28.149999618530273,28.149999618530273,4909
2008-08-29,28.600000381469727,28.899999618530273,28.25,28.399999618530273,28.399999618530273,13145
2008-09-01,28.25,28.950000762939453,28.200000762939453,28.299999237060547,28.299999237060547,6108
2008-09-02,28.350000381469727,28.649999618530273,28.25,28.549999237060547,28.549999237060547,7624
2008-09-04,28.399999618530273,29.100000381469727,27.5,27.899999618530273,27.899999618530273,31802
2008-09-05,27.700000762939453,28.100000381469727,27.649999618530273,27.700000762939453,27.700000762939453,6933
2008-09-08,29.5,29.5,27.75,28.0,28.0,20347
2008-09-09,27.799999237060547,28.25,27.75,27.899999618530273,27.899999618530273,5295
2008-09-10,27.549999237060547,28.399999618530273,27.549999237060547,28.25,28.25,10231
2008-09-11,28.049999237060547,28.399999618530273,27.5,27.75,27.75,9739
2008-09-12,27.25,28.200000762939453,27.100000381469727,27.450000762939453,27.450000762939453,9263
2008-09-15,27.399999618530273,27.399999618530273,26.299999237060547,26.600000381469727,26.600000381469727,8078
2008-09-16,26.25,26.899999618530273,25.700000762939453,26.299999237060547,26.299999237060547,13076
2008-09-17,27.299999237060547,27.299999237060547,25.700000762939453,26.600000381469727,26.600000381469727,5846
2008-09-18,26.0,26.0,24.899999618530273,25.350000381469727,25.350000381469727,11398
2008-09-19,26.100000381469727,26.5,25.299999237060547,25.600000381469727,25.600000381469727,8070
2008-09-22,25.850000381469727,26.299999237060547,25.450000762939453,25.549999237060547,25.549999237060547,4421
2008-09-23,25.0,25.700000762939453,25.0,25.549999237060547,25.549999237060547,4121
2008-09-24,25.799999237060547,25.799999237060547,25.25,25.600000381469727,25.600000381469727,5110
2008-09-25,25.149999618530273,25.649999618530273,25.149999618530273,25.299999237060547,25.299999237060547,3519
2008-09-26,25.5,25.950000762939453,24.649999618530273,24.950000762939453,24.950000762939453,4707
2008-09-29,24.25,24.899999618530273,22.799999237060547,22.950000762939453,22.950000762939453,16227
2008-09-30,21.950000762939453,25.5,20.049999237060547,22.950000762939453,22.950000762939453,8071
2008-10-01,22.25,23.899999618530273,22.25,23.100000381469727,23.100000381469727,1731
2008-10-03,23.700000762939453,23.700000762939453,21.850000381469727,22.0,22.0,10512
2008-10-06,20.350000381469727,23.0,20.350000381469727,21.350000381469727,21.350000381469727,16537
2008-10-07,20.25,22.25,19.75,19.899999618530273,19.899999618530273,48153
2008-10-08,19.75,19.75,17.149999618530273,17.299999237060547,17.299999237060547,29155
2008-10-10,15.100000381469727,16.549999237060547,15.050000190734863,16.049999237060547,16.049999237060547,16996
2008-10-13,18.799999237060547,18.799999237060547,16.799999237060547,17.899999618530273,17.899999618530273,9163
2008-10-14,18.25,19.850000381469727,17.549999237060547,17.600000381469727,17.600000381469727,6905
2008-10-15,18.0,18.200000762939453,16.5,17.149999618530273,17.149999618530273,6961
2008-10-16,15.550000190734863,18.799999237060547,15.0,16.600000381469727,16.600000381469727,10517
2008-10-17,18.75,18.75,16.5,16.75,16.75,6416
2008-10-20,16.600000381469727,16.899999618530273,15.850000381469727,16.100000381469727,16.100000381469727,21823
2008-10-21,16.149999618530273,16.799999237060547,16.100000381469727,16.600000381469727,16.600000381469727,6160
2008-10-22,16.200000762939453,16.5,15.5,15.600000381469727,15.600000381469727,13648
2008-10-23,15.25,16.149999618530273,15.0,15.800000190734863,15.800000190734863,4253
2008-10-24,15.0,16.600000381469727,14.0,14.399999618530273,14.399999618530273,20887
2008-10-27,13.100000381469727,13.5,11.800000190734863,12.800000190734863,12.800000190734863,17968
2008-10-29,13.050000190734863,14.850000381469727,13.050000190734863,14.550000190734863,14.550000190734863,7787
2008-10-31,14.0,15.100000381469727,14.0,15.0,15.0,10623
2008-11-03,15.300000190734863,16.5,15.0,15.550000190734863,15.550000190734863,9556
2008-11-04,15.5,17.25,15.5,17.149999618530273,17.149999618530273,12862
2008-11-05,17.299999237060547,17.5,16.0,16.149999618530273,16.149999618530273,6147
2008-11-06,15.649999618530273,15.649999618530273,14.550000190734863,15.199999809265137,15.199999809265137,4825
2008-11-07,15.0,16.700000762939453,14.600000381469727,15.149999618530273,15.149999618530273,3841
2008-11-10,14.0,15.800000190734863,14.0,15.050000190734863,15.050000190734863,6833
2008-11-11,14.699999809265137,15.5,14.699999809265137,15.050000190734863,15.050000190734863,2861
2008-11-12,14.25,15.75,13.5,14.050000190734863,14.050000190734863,8172
2008-11-14,13.75,14.800000190734863,13.100000381469727,13.5,13.5,9461
2008-11-17,13.100000381469727,14.25,13.100000381469727,13.949999809265137,13.949999809265137,16698
2008-11-18,13.100000381469727,13.949999809265137,13.100000381469727,13.800000190734863,13.800000190734863,2985
2008-11-19,13.100000381469727,15.0,13.100000381469727,14.0,14.0,27035
2008-11-20,13.050000190734863,13.850000381469727,12.550000190734863,13.25,13.25,15572
2008-11-21,12.899999618530273,13.5,12.850000381469727,13.149999618530273,13.149999618530273,3907
2008-11-24,13.0,13.75,12.949999809265137,13.199999809265137,13.199999809265137,5785
2008-11-25,13.25,13.449999809265137,12.350000381469727,12.600000381469727,12.600000381469727,11555
2008-11-26,12.199999809265137,13.0,12.149999618530273,12.850000381469727,12.850000381469727,3351
2008-11-27,12.850000381469727,12.850000381469727,12.850000381469727,12.850000381469727,12.850000381469727,0
2008-11-28,13.0,13.550000190734863,12.899999618530273,13.100000381469727,13.100000381469727,148
2008-12-01,12.5,14.649999618530273,12.449999809265137,12.850000381469727,12.850000381469727,2733
2008-12-02,13.75,13.75,12.100000381469727,13.0,13.0,1933
2008-12-03,15.600000381469727,15.600000381469727,12.5,12.699999809265137,12.699999809265137,3652
2008-12-04,12.350000381469727,13.25,12.350000381469727,12.75,12.75,3271
2008-12-05,12.5,13.5,12.5,13.050000190734863,13.050000190734863,5201
2008-12-08,13.050000190734863,13.5,12.550000190734863,12.699999809265137,12.699999809265137,4350
2008-12-10,12.600000381469727,13.0,12.600000381469727,12.949999809265137,12.949999809265137,2968
2008-12-11,12.75,14.5,12.75,13.050000190734863,13.050000190734863,19689
2008-12-12,13.0,13.5,13.0,13.399999618530273,13.399999618530273,9509
2008-12-15,14.149999618530273,14.5,13.149999618530273,14.0,14.0,17601
2008-12-16,13.399999618530273,16.350000381469727,11.199999809265137,16.350000381469727,16.350000381469727,76592
2008-12-17,14.75,15.25,14.75,15.25,15.25,10067
2008-12-18,16.5,17.649999618530273,14.5,16.049999237060547,16.049999237060547,29938
2008-12-19,14.600000381469727,16.5,14.550000190734863,16.149999618530273,16.149999618530273,12754
2008-12-22,16.5,16.5,15.199999809265137,15.699999809265137,15.699999809265137,3483
2008-12-23,15.100000381469727,15.649999618530273,14.5,14.600000381469727,14.600000381469727,5237
2008-12-24,13.199999809265137,15.25,13.199999809265137,14.0,14.0,5254
2008-12-26,14.0,14.25,14.0,14.050000190734863,14.050000190734863,3175
2008-12-29,14.0,14.699999809265137,14.0,14.350000381469727,14.350000381469727,6248
2008-12-30,13.800000190734863,15.949999809265137,13.800000190734863,14.550000190734863,14.550000190734863,3900
