Date,Open,High,Low,Close,Adj Close,Volume
2021-01-01,16.75,16.75,16.100000381469727,16.200000762939453,16.200000762939453,93943
2021-01-04,16.700000762939453,16.700000762939453,16.049999237060547,16.200000762939453,16.200000762939453,115944
2021-01-05,16.149999618530273,16.350000381469727,15.649999618530273,15.949999809265137,15.949999809265137,104986
2021-01-06,15.800000190734863,16.100000381469727,15.399999618530273,15.550000190734863,15.550000190734863,94116
2021-01-07,15.899999618530273,16.100000381469727,15.5,15.75,15.75,96367
2021-01-08,15.75,16.299999237060547,15.5,15.600000381469727,15.600000381469727,138530
2021-01-11,15.5,15.699999809265137,14.800000190734863,14.899999618530273,14.899999618530273,111669
2021-01-12,15.199999809265137,15.199999809265137,14.800000190734863,14.899999618530273,14.899999618530273,71318
2021-01-13,15.399999618530273,15.399999618530273,14.199999809265137,14.699999809265137,14.699999809265137,121219
2021-01-14,14.699999809265137,15.149999618530273,14.699999809265137,15.100000381469727,15.100000381469727,63546
2021-01-15,15.149999618530273,16.700000762939453,14.800000190734863,15.699999809265137,15.699999809265137,480270
2021-01-18,16.0,16.100000381469727,15.100000381469727,15.350000381469727,15.350000381469727,53371
2021-01-19,15.25,15.600000381469727,15.149999618530273,15.25,15.25,60774
2021-01-20,15.600000381469727,16.5,15.600000381469727,15.800000190734863,15.800000190734863,411732
2021-01-21,15.949999809265137,16.0,15.199999809265137,15.300000190734863,15.300000190734863,63320
2021-01-22,15.199999809265137,15.5,14.5,14.649999618530273,14.649999618530273,144244
2021-01-25,14.75,14.949999809265137,14.5,14.800000190734863,14.800000190734863,58550
2021-01-27,14.800000190734863,14.899999618530273,14.649999618530273,14.699999809265137,14.699999809265137,22300
2021-01-28,14.5,14.800000190734863,14.399999618530273,14.550000190734863,14.550000190734863,22562
2021-01-29,14.800000190734863,15.100000381469727,14.649999618530273,14.75,14.75,21999
2021-02-01,15.0,15.0,14.5,14.550000190734863,14.550000190734863,39939
2021-02-02,14.800000190734863,14.899999618530273,14.5,14.699999809265137,14.699999809265137,59454
2021-02-03,14.850000381469727,14.850000381469727,14.5,14.550000190734863,14.550000190734863,30519
2021-02-04,14.699999809265137,15.449999809265137,14.5,15.100000381469727,15.100000381469727,100591
2021-02-05,15.100000381469727,15.300000190734863,14.649999618530273,14.75,14.75,61889
2021-02-08,14.449999809265137,15.0,14.449999809265137,14.649999618530273,14.649999618530273,28119
2021-02-09,14.600000381469727,14.800000190734863,14.5,14.550000190734863,14.550000190734863,22231
2021-02-10,14.449999809265137,14.699999809265137,14.300000190734863,14.449999809265137,14.449999809265137,50122
2021-02-11,14.649999618530273,14.75,14.449999809265137,14.550000190734863,14.550000190734863,32464
2021-02-12,14.5,14.699999809265137,14.300000190734863,14.350000381469727,14.350000381469727,32239
2021-02-15,14.5,14.5,14.300000190734863,14.300000190734863,14.300000190734863,26228
2021-02-16,14.300000190734863,14.550000190734863,14.149999618530273,14.449999809265137,14.449999809265137,29599
2021-02-17,14.699999809265137,14.699999809265137,14.25,14.350000381469727,14.350000381469727,26261
2021-02-18,14.350000381469727,14.5,14.100000381469727,14.199999809265137,14.199999809265137,97704
2021-02-19,14.199999809265137,14.75,14.100000381469727,14.199999809265137,14.199999809265137,80112
2021-02-22,14.5,14.5,13.949999809265137,14.0,14.0,19307
2021-02-23,14.050000190734863,14.199999809265137,13.899999618530273,13.949999809265137,13.949999809265137,16486
2021-02-24,14.0,15.399999618530273,14.0,14.699999809265137,14.699999809265137,60359
2021-02-25,15.149999618530273,15.149999618530273,14.350000381469727,14.5,14.5,37482
2021-02-26,14.399999618530273,14.649999618530273,14.199999809265137,14.449999809265137,14.449999809265137,22206
2021-03-01,14.600000381469727,14.649999618530273,14.300000190734863,14.550000190734863,14.550000190734863,20399
2021-03-02,14.649999618530273,15.649999618530273,14.199999809265137,15.25,15.25,386633
2021-03-03,15.449999809265137,18.299999237060547,15.300000190734863,16.549999237060547,16.549999237060547,1214317
2021-03-04,16.450000762939453,16.450000762939453,15.800000190734863,15.949999809265137,15.949999809265137,138633
2021-03-05,16.299999237060547,17.299999237060547,15.800000190734863,16.850000381469727,16.850000381469727,536112
2021-03-08,17.399999618530273,17.5,16.850000381469727,17.0,17.0,189653
2021-03-09,17.25,20.399999618530273,16.899999618530273,18.649999618530273,18.649999618530273,2191211
2021-03-10,18.600000381469727,19.549999237060547,17.649999618530273,18.149999618530273,18.149999618530273,444483
2021-03-12,18.799999237060547,19.0,16.850000381469727,17.200000762939453,17.200000762939453,259999
2021-03-15,17.5,17.75,16.450000762939453,16.950000762939453,16.950000762939453,179028
2021-03-16,17.299999237060547,17.75,16.5,16.75,16.75,190648
2021-03-17,16.75,17.0,16.299999237060547,16.350000381469727,16.350000381469727,77807
2021-03-18,16.450000762939453,16.700000762939453,15.550000190734863,15.949999809265137,15.949999809265137,89227
2021-03-19,15.25,16.5,15.100000381469727,16.049999237060547,16.049999237060547,67633
2021-03-22,16.049999237060547,16.049999237060547,15.550000190734863,15.800000190734863,15.800000190734863,42246
2021-03-23,16.299999237060547,16.899999618530273,15.75,15.949999809265137,15.949999809265137,58402
2021-03-24,15.949999809265137,16.200000762939453,15.100000381469727,15.300000190734863,15.300000190734863,60850
2021-03-25,15.300000190734863,18.0,15.050000190734863,16.049999237060547,16.049999237060547,329795
2021-03-26,16.200000762939453,16.75,15.449999809265137,15.949999809265137,15.949999809265137,71544
2021-03-30,15.949999809265137,17.149999618530273,15.949999809265137,16.899999618530273,16.899999618530273,84866
2021-03-31,16.899999618530273,17.350000381469727,16.450000762939453,16.649999618530273,16.649999618530273,38728
2021-04-01,16.649999618530273,17.299999237060547,16.549999237060547,16.799999237060547,16.799999237060547,40181
2021-04-05,16.950000762939453,16.950000762939453,15.649999618530273,16.200000762939453,16.200000762939453,55998
2021-04-06,16.049999237060547,16.5,15.949999809265137,16.0,16.0,19961
2021-04-07,16.049999237060547,16.5,15.850000381469727,15.899999618530273,15.899999618530273,52415
2021-04-08,15.949999809265137,16.399999618530273,15.800000190734863,15.899999618530273,15.899999618530273,38100
2021-04-09,15.800000190734863,16.0,15.300000190734863,15.550000190734863,15.550000190734863,38733
2021-04-12,15.399999618530273,15.5,14.949999809265137,15.050000190734863,15.050000190734863,22291
2021-04-13,14.699999809265137,15.300000190734863,14.699999809265137,15.050000190734863,15.050000190734863,9147
2021-04-15,15.050000190734863,15.25,14.699999809265137,15.100000381469727,15.100000381469727,18046
2021-04-16,14.5,15.199999809265137,14.5,14.800000190734863,14.800000190734863,27869
2021-04-19,15.0,15.0,13.399999618530273,14.149999618530273,14.149999618530273,35709
2021-04-20,14.75,14.800000190734863,14.199999809265137,14.300000190734863,14.300000190734863,27952
2021-04-22,14.050000190734863,14.699999809265137,13.899999618530273,14.649999618530273,14.649999618530273,13143
2021-04-23,14.399999618530273,15.0,14.350000381469727,14.800000190734863,14.800000190734863,20434
2021-04-26,15.0,15.0,14.199999809265137,14.449999809265137,14.449999809265137,24882
2021-04-27,14.449999809265137,15.149999618530273,14.449999809265137,15.0,15.0,45483
2021-04-28,15.149999618530273,15.699999809265137,14.850000381469727,15.300000190734863,15.300000190734863,69101
2021-04-29,15.25,15.25,14.600000381469727,14.800000190734863,14.800000190734863,27097
2021-04-30,14.949999809265137,15.0,14.5,14.600000381469727,14.600000381469727,50391
2021-05-03,14.600000381469727,14.899999618530273,14.050000190734863,14.75,14.75,123538
2021-05-04,14.949999809265137,16.899999618530273,14.75,15.850000381469727,15.850000381469727,371444
2021-05-05,16.200000762939453,16.450000762939453,15.75,16.049999237060547,16.049999237060547,126650
2021-05-06,16.100000381469727,16.149999618530273,15.550000190734863,15.649999618530273,15.649999618530273,23711
2021-05-07,15.5,17.100000381469727,15.5,16.649999618530273,16.649999618530273,292774
2021-05-10,16.649999618530273,17.5,16.25,16.549999237060547,16.549999237060547,105895
2021-05-11,15.699999809265137,17.200000762939453,15.699999809265137,16.549999237060547,16.549999237060547,145793
2021-05-12,16.5,17.700000762939453,15.75,15.949999809265137,15.949999809265137,119349
2021-05-14,16.649999618530273,16.649999618530273,15.899999618530273,16.149999618530273,16.149999618530273,50514
2021-05-17,16.549999237060547,16.549999237060547,16.049999237060547,16.200000762939453,16.200000762939453,38260
2021-05-18,16.899999618530273,16.899999618530273,16.100000381469727,16.399999618530273,16.399999618530273,57873
2021-05-19,16.200000762939453,16.450000762939453,15.75,16.0,16.0,77659
2021-05-20,16.0,17.299999237060547,15.949999809265137,16.25,16.25,226472
2021-05-21,16.5,16.799999237060547,16.25,16.549999237060547,16.549999237060547,55262
2021-05-24,16.549999237060547,17.25,16.299999237060547,16.549999237060547,16.549999237060547,176966
2021-05-25,16.75,16.899999618530273,16.600000381469727,16.799999237060547,16.799999237060547,112700
2021-05-26,16.950000762939453,18.450000762939453,16.649999618530273,17.649999618530273,17.649999618530273,535100
2021-05-27,17.649999618530273,18.25,17.200000762939453,17.5,17.5,389462
2021-05-28,17.5,17.75,16.899999618530273,17.100000381469727,17.100000381469727,128007
2021-05-31,18.5,19.5,18.25,18.450000762939453,18.450000762939453,1462825
2021-06-01,18.5,18.700000762939453,17.549999237060547,17.850000381469727,17.850000381469727,202409
2021-06-02,17.600000381469727,19.700000762939453,17.600000381469727,18.850000381469727,18.850000381469727,415961
2021-06-03,19.0,19.450000762939453,18.399999618530273,18.75,18.75,193562
2021-06-04,18.5,19.0,18.200000762939453,18.350000381469727,18.350000381469727,193224
2021-06-07,18.350000381469727,18.799999237060547,18.200000762939453,18.25,18.25,128064
2021-06-08,18.299999237060547,18.600000381469727,18.0,18.299999237060547,18.299999237060547,134733
2021-06-09,18.350000381469727,19.600000381469727,18.049999237060547,18.299999237060547,18.299999237060547,852385
2021-06-10,18.5,19.5,18.25,18.799999237060547,18.799999237060547,285941
2021-06-11,19.0,20.450000762939453,18.799999237060547,19.950000762939453,19.950000762939453,1002964
2021-06-14,20.25,20.25,19.100000381469727,19.25,19.25,300963
2021-06-15,19.100000381469727,20.950000762939453,19.049999237060547,20.200000762939453,20.200000762939453,564861
2021-06-16,20.0,20.200000762939453,19.549999237060547,19.649999618530273,19.649999618530273,214188
2021-06-17,19.25,20.100000381469727,19.100000381469727,19.299999237060547,19.299999237060547,268341
2021-06-18,19.149999618530273,19.700000762939453,18.299999237060547,19.0,19.0,458599
2021-06-21,18.899999618530273,19.200000762939453,17.399999618530273,18.850000381469727,18.850000381469727,291268
2021-06-22,18.850000381469727,19.75,18.700000762939453,18.950000762939453,18.950000762939453,814927
2021-06-23,19.100000381469727,19.700000762939453,18.799999237060547,18.899999618530273,18.899999618530273,407643
2021-06-24,19.25,19.399999618530273,18.600000381469727,18.700000762939453,18.700000762939453,105779
2021-06-25,18.950000762939453,22.399999618530273,18.600000381469727,20.5,20.5,3176074
2021-06-28,20.700000762939453,21.200000762939453,19.75,20.0,20.0,484555
2021-06-29,20.049999237060547,20.25,19.600000381469727,19.700000762939453,19.700000762939453,137186
2021-06-30,20.149999618530273,20.700000762939453,19.75,20.549999237060547,20.549999237060547,344981
2021-07-01,20.75,21.149999618530273,20.100000381469727,20.200000762939453,20.200000762939453,352491
2021-07-02,20.450000762939453,20.700000762939453,19.799999237060547,19.899999618530273,19.899999618530273,190908
2021-07-05,20.100000381469727,21.649999618530273,19.600000381469727,20.75,20.75,590925
2021-07-06,21.149999618530273,21.799999237060547,20.399999618530273,20.600000381469727,20.600000381469727,218322
2021-07-07,21.100000381469727,24.700000762939453,21.100000381469727,24.700000762939453,24.700000762939453,5168423
2021-07-08,24.950000762939453,24.950000762939453,22.600000381469727,22.850000381469727,22.850000381469727,1403474
2021-07-09,22.950000762939453,23.850000381469727,22.5,23.049999237060547,23.049999237060547,596552
2021-07-12,23.0,23.399999618530273,22.299999237060547,22.600000381469727,22.600000381469727,272434
2021-07-13,22.950000762939453,23.100000381469727,21.600000381469727,21.75,21.75,403508
2021-07-14,21.399999618530273,22.350000381469727,21.399999618530273,21.850000381469727,21.850000381469727,198746
2021-07-15,21.850000381469727,22.649999618530273,20.5,20.700000762939453,20.700000762939453,427551
2021-07-16,21.0,21.700000762939453,20.399999618530273,20.649999618530273,20.649999618530273,263631
2021-07-19,20.5,21.200000762939453,19.649999618530273,20.25,20.25,330767
2021-07-20,20.049999237060547,20.950000762939453,18.700000762939453,20.649999618530273,20.649999618530273,415700
2021-07-22,21.5,21.5,20.5,21.049999237060547,21.049999237060547,222344
2021-07-23,21.25,21.850000381469727,20.5,20.649999618530273,20.649999618530273,209935
2021-07-26,20.850000381469727,20.850000381469727,19.899999618530273,20.100000381469727,20.100000381469727,138382
2021-07-27,19.950000762939453,23.75,19.950000762939453,22.149999618530273,22.149999618530273,1307269
2021-07-28,22.600000381469727,23.5,21.950000762939453,23.0,23.0,646510
2021-07-29,23.25,24.100000381469727,22.600000381469727,22.75,22.75,534487
2021-07-30,22.799999237060547,25.700000762939453,22.450000762939453,24.700000762939453,24.700000762939453,1587074
2021-08-02,27.700000762939453,27.700000762939453,25.149999618530273,25.5,25.5,1262204
2021-08-03,26.299999237060547,26.299999237060547,24.25,24.399999618530273,24.399999618530273,423356
2021-08-04,25.200000762939453,25.200000762939453,22.850000381469727,23.100000381469727,23.100000381469727,381797
2021-08-05,23.0,24.149999618530273,21.5,22.700000762939453,22.700000762939453,616425
2021-08-06,22.75,23.700000762939453,22.25,22.700000762939453,22.700000762939453,177806
2021-08-09,22.75,23.299999237060547,22.25,22.75,22.75,181037
2021-08-10,22.850000381469727,22.850000381469727,20.549999237060547,20.850000381469727,20.850000381469727,294104
2021-08-11,20.850000381469727,20.950000762939453,18.899999618530273,20.399999618530273,20.399999618530273,216845
2021-08-12,20.5,21.600000381469727,20.5,20.850000381469727,20.850000381469727,158650
2021-08-13,20.850000381469727,22.399999618530273,20.600000381469727,21.350000381469727,21.350000381469727,202228
2021-08-16,21.149999618530273,21.5,20.0,20.299999237060547,20.299999237060547,164804
2021-08-17,20.5,20.75,19.649999618530273,19.75,19.75,133763
2021-08-18,19.850000381469727,20.5,19.5,19.649999618530273,19.649999618530273,87096
2021-08-20,19.0,19.649999618530273,17.0,18.700000762939453,18.700000762939453,299624
2021-08-23,19.200000762939453,19.5,18.200000762939453,18.399999618530273,18.399999618530273,82664
2021-08-24,18.450000762939453,20.600000381469727,18.200000762939453,19.950000762939453,19.950000762939453,198229
2021-08-25,20.0,20.450000762939453,19.549999237060547,19.75,19.75,88871
2021-08-26,19.75,20.299999237060547,19.5,19.549999237060547,19.549999237060547,76759
2021-08-27,19.549999237060547,19.75,18.5,18.899999618530273,18.899999618530273,67972
2021-08-30,18.950000762939453,20.450000762939453,18.950000762939453,19.850000381469727,19.850000381469727,151819
2021-08-31,20.899999618530273,20.899999618530273,19.600000381469727,19.799999237060547,19.799999237060547,57586
2021-09-01,20.0,20.700000762939453,19.649999618530273,20.049999237060547,20.049999237060547,143487
2021-09-02,20.100000381469727,20.399999618530273,19.700000762939453,19.799999237060547,19.799999237060547,136599
2021-09-03,20.25,20.25,19.549999237060547,19.600000381469727,19.600000381469727,64911
2021-09-06,19.700000762939453,19.950000762939453,19.149999618530273,19.549999237060547,19.549999237060547,106101
2021-09-07,19.5,19.75,19.149999618530273,19.450000762939453,19.450000762939453,38300
2021-09-08,19.75,19.75,18.899999618530273,19.049999237060547,19.049999237060547,262661
2021-09-09,19.100000381469727,19.399999618530273,19.0,19.149999618530273,19.149999618530273,78472
2021-09-13,19.149999618530273,19.5,18.950000762939453,19.200000762939453,19.200000762939453,61637
2021-09-14,19.25,19.5,18.0,18.950000762939453,18.950000762939453,170845
2021-09-15,18.700000762939453,19.350000381469727,18.700000762939453,19.049999237060547,19.049999237060547,102356
2021-09-16,19.0,19.299999237060547,19.0,19.049999237060547,19.049999237060547,49833
2021-09-17,19.049999237060547,19.200000762939453,18.200000762939453,18.700000762939453,18.700000762939453,107715
2021-09-20,18.75,18.75,18.049999237060547,18.350000381469727,18.350000381469727,39854
2021-09-21,18.350000381469727,18.649999618530273,18.350000381469727,18.450000762939453,18.450000762939453,26516
2021-09-22,18.700000762939453,19.0,18.5,18.600000381469727,18.600000381469727,44778
2021-09-23,18.950000762939453,19.100000381469727,18.399999618530273,18.450000762939453,18.450000762939453,97203
2021-09-24,18.450000762939453,18.700000762939453,17.899999618530273,18.100000381469727,18.100000381469727,95554
2021-09-27,18.200000762939453,18.950000762939453,17.700000762939453,18.600000381469727,18.600000381469727,90833
2021-09-28,18.25,20.25,18.25,19.5,19.5,513656
2021-09-29,19.700000762939453,19.950000762939453,19.350000381469727,19.649999618530273,19.649999618530273,71978
2021-09-30,19.899999618530273,20.75,19.350000381469727,19.5,19.5,136561
2021-10-01,19.5,20.0,19.100000381469727,19.600000381469727,19.600000381469727,77590
2021-10-04,19.950000762939453,20.0,19.5,19.549999237060547,19.549999237060547,94400
2021-10-05,19.549999237060547,21.0,19.350000381469727,20.5,20.5,322861
2021-10-06,20.899999618530273,21.100000381469727,19.5,19.700000762939453,19.700000762939453,177481
2021-10-07,20.0,20.799999237060547,19.75,19.950000762939453,19.950000762939453,108049
2021-10-08,20.049999237060547,20.899999618530273,20.049999237060547,20.25,20.25,115810
2021-10-11,20.450000762939453,22.149999618530273,20.049999237060547,21.25,21.25,548547
2021-10-12,21.399999618530273,22.100000381469727,21.049999237060547,21.799999237060547,21.799999237060547,231018
2021-10-13,22.0,22.0,21.049999237060547,21.25,21.25,199576
2021-10-14,21.5,21.5,20.600000381469727,20.899999618530273,20.899999618530273,92669
2021-10-18,20.950000762939453,20.950000762939453,20.049999237060547,20.149999618530273,20.149999618530273,119692
2021-10-19,20.399999618530273,20.399999618530273,19.200000762939453,19.549999237060547,19.549999237060547,105026
2021-10-20,19.600000381469727,19.75,19.100000381469727,19.149999618530273,19.149999618530273,45803
2021-10-21,19.200000762939453,19.899999618530273,19.200000762939453,19.600000381469727,19.600000381469727,33961
2021-10-22,19.75,20.149999618530273,19.049999237060547,19.25,19.25,68983
2021-10-25,19.200000762939453,19.299999237060547,18.549999237060547,18.950000762939453,18.950000762939453,62716
2021-10-26,19.0,19.950000762939453,18.350000381469727,19.149999618530273,19.149999618530273,56061
2021-10-27,19.25,20.200000762939453,19.200000762939453,19.600000381469727,19.600000381469727,92349
2021-10-28,19.649999618530273,19.950000762939453,18.75,18.850000381469727,18.850000381469727,41408
2021-10-29,18.899999618530273,19.350000381469727,18.600000381469727,18.799999237060547,18.799999237060547,36786
2021-11-01,19.5,19.5,18.899999618530273,19.0,19.0,26357
2021-11-02,19.399999618530273,19.399999618530273,18.75,18.950000762939453,18.950000762939453,33371
2021-11-03,19.0,19.25,18.649999618530273,18.899999618530273,18.899999618530273,40436
2021-11-04,19.25,19.299999237060547,19.0,19.049999237060547,19.049999237060547,26384
2021-11-08,19.0,19.25,19.0,19.049999237060547,19.049999237060547,30504
2021-11-09,19.049999237060547,19.25,19.049999237060547,19.049999237060547,19.049999237060547,33049
2021-11-10,19.049999237060547,19.25,18.850000381469727,18.950000762939453,18.950000762939453,46245
2021-11-11,18.600000381469727,19.200000762939453,18.600000381469727,18.799999237060547,18.799999237060547,30119
2021-11-12,18.75,22.350000381469727,18.75,21.950000762939453,21.950000762939453,1546348
2021-11-15,21.549999237060547,21.549999237060547,19.799999237060547,20.049999237060547,20.049999237060547,424442
2021-11-16,20.0,20.149999618530273,19.75,19.850000381469727,19.850000381469727,102897
2021-11-17,19.799999237060547,21.600000381469727,19.75,20.149999618530273,20.149999618530273,412878
2021-11-18,20.5,20.5,19.75,19.950000762939453,19.950000762939453,44563
2021-11-22,19.75,20.75,18.799999237060547,19.25,19.25,170126
2021-11-23,19.0,19.600000381469727,18.799999237060547,19.149999618530273,19.149999618530273,89556
2021-11-24,19.149999618530273,19.700000762939453,18.899999618530273,19.200000762939453,19.200000762939453,85750
2021-11-25,19.200000762939453,19.5,19.0,19.350000381469727,19.350000381469727,28468
2021-11-26,18.049999237060547,19.649999618530273,18.049999237060547,19.049999237060547,19.049999237060547,109020
2021-11-29,19.100000381469727,19.200000762939453,18.049999237060547,18.850000381469727,18.850000381469727,67848
2021-11-30,18.600000381469727,19.450000762939453,18.600000381469727,18.75,18.75,39918
2021-12-01,18.799999237060547,19.25,18.350000381469727,18.600000381469727,18.600000381469727,47485
2021-12-02,18.899999618530273,18.950000762939453,18.600000381469727,18.899999618530273,18.899999618530273,46177
2021-12-03,19.100000381469727,19.100000381469727,18.549999237060547,18.649999618530273,18.649999618530273,62148
2021-12-06,18.649999618530273,19.0,18.5,18.799999237060547,18.799999237060547,61790
2021-12-07,18.649999618530273,19.0,18.600000381469727,18.799999237060547,18.799999237060547,57451
2021-12-08,18.850000381469727,21.200000762939453,18.75,20.350000381469727,20.350000381469727,500391
2021-12-09,20.549999237060547,21.0,20.25,20.350000381469727,20.350000381469727,113815
2021-12-10,20.350000381469727,20.950000762939453,20.0,20.600000381469727,20.600000381469727,83909
2021-12-13,21.0,21.0,19.799999237060547,20.049999237060547,20.049999237060547,45717
2021-12-14,20.200000762939453,22.0,19.899999618530273,21.399999618530273,21.399999618530273,577868
2021-12-15,21.649999618530273,21.649999618530273,20.100000381469727,20.350000381469727,20.350000381469727,125177
2021-12-16,20.700000762939453,20.700000762939453,20.049999237060547,20.149999618530273,20.149999618530273,54090
2021-12-17,20.049999237060547,20.049999237060547,18.950000762939453,19.25,19.25,127902
2021-12-20,18.950000762939453,18.950000762939453,17.049999237060547,17.950000762939453,17.950000762939453,282967
2021-12-21,18.149999618530273,18.75,17.850000381469727,18.350000381469727,18.350000381469727,65437
2021-12-22,18.350000381469727,19.549999237060547,18.100000381469727,18.950000762939453,18.950000762939453,90240
2021-12-23,19.600000381469727,19.799999237060547,18.799999237060547,19.0,19.0,61830
2021-12-24,19.350000381469727,19.350000381469727,17.850000381469727,18.25,18.25,188078
2021-12-27,18.399999618530273,18.799999237060547,18.0,18.5,18.5,97244
2021-12-28,18.5,19.450000762939453,18.5,19.200000762939453,19.200000762939453,91553
2021-12-29,19.5,20.450000762939453,18.799999237060547,19.5,19.5,260329
2021-12-30,19.5,21.450000762939453,19.5,20.450000762939453,20.450000762939453,968223
