Date,Open,High,Low,Close,Adj Close,Volume
2009-01-02,15.100000381469727,16.25,15.100000381469727,16.0,16.0,22100
2009-01-05,16.0,16.0,15.5,15.649999618530273,15.649999618530273,10003
2009-01-06,16.149999618530273,16.25,15.050000190734863,15.5,15.5,6900
2009-01-07,15.800000190734863,15.800000190734863,14.100000381469727,14.649999618530273,14.649999618530273,8542
2009-01-09,13.399999618530273,15.199999809265137,13.399999618530273,14.25,14.25,7256
2009-01-12,14.050000190734863,14.25,14.0,14.050000190734863,14.050000190734863,3856
2009-01-13,14.0,14.649999618530273,14.0,14.199999809265137,14.199999809265137,1500
2009-01-14,14.149999618530273,14.300000190734863,14.0,14.100000381469727,14.100000381469727,4980
2009-01-15,14.449999809265137,14.449999809265137,14.0,14.100000381469727,14.100000381469727,5100
2009-01-16,13.5,14.399999618530273,13.399999618530273,13.850000381469727,13.850000381469727,3069
2009-01-19,13.149999618530273,14.0,13.149999618530273,14.0,14.0,1289
2009-01-20,13.550000190734863,13.75,13.550000190734863,13.649999618530273,13.649999618530273,798
2009-01-21,13.0,14.0,13.0,13.449999809265137,13.449999809265137,2900
2009-01-22,13.300000190734863,13.300000190734863,12.600000381469727,12.899999618530273,12.899999618530273,6082
2009-01-23,12.75,13.350000381469727,12.5,12.649999618530273,12.649999618530273,7786
2009-01-27,12.699999809265137,12.800000190734863,12.600000381469727,12.600000381469727,12.600000381469727,6609
2009-01-28,13.399999618530273,13.399999618530273,12.399999618530273,12.850000381469727,12.850000381469727,3146
2009-01-29,13.350000381469727,13.350000381469727,12.5,12.550000190734863,12.550000190734863,1175
2009-01-30,12.949999809265137,12.949999809265137,12.300000190734863,12.75,12.75,9421
2009-02-02,12.350000381469727,13.300000190734863,12.350000381469727,13.100000381469727,13.100000381469727,15236
2009-02-03,12.75,13.449999809265137,12.600000381469727,12.800000190734863,12.800000190734863,2396
2009-02-04,12.5,13.350000381469727,12.449999809265137,12.75,12.75,8874
2009-02-05,12.5,13.300000190734863,12.300000190734863,12.5,12.5,4351
2009-02-06,12.350000381469727,13.5,12.300000190734863,13.0,13.0,8211
2009-02-09,13.0,13.800000190734863,13.0,13.100000381469727,13.100000381469727,2488
2009-02-10,13.0,13.25,12.699999809265137,12.699999809265137,12.699999809265137,1788
2009-02-11,12.5,13.399999618530273,12.5,13.25,13.25,2792
2009-02-12,13.800000190734863,15.899999618530273,13.699999809265137,15.600000381469727,15.600000381469727,282079
2009-02-13,15.5,15.800000190734863,14.75,14.899999618530273,14.899999618530273,65122
2009-02-16,14.5,15.149999618530273,13.899999618530273,14.149999618530273,14.149999618530273,17541
2009-02-17,13.899999618530273,14.0,13.300000190734863,13.399999618530273,13.399999618530273,6712
2009-02-18,13.0,13.600000381469727,13.0,13.199999809265137,13.199999809265137,9133
2009-02-19,13.5,13.649999618530273,13.199999809265137,13.25,13.25,6734
2009-02-20,12.899999618530273,13.0,12.600000381469727,12.600000381469727,12.600000381469727,3922
2009-02-24,12.600000381469727,12.899999618530273,12.100000381469727,12.850000381469727,12.850000381469727,7280
2009-02-25,13.149999618530273,13.199999809265137,12.300000190734863,12.5,12.5,5575
2009-02-26,12.399999618530273,12.800000190734863,12.050000190734863,12.75,12.75,5549
2009-02-27,12.75,12.75,12.050000190734863,12.300000190734863,12.300000190734863,15498
2009-03-02,12.100000381469727,12.5,12.0,12.449999809265137,12.449999809265137,9600
2009-03-03,12.100000381469727,12.75,12.100000381469727,12.399999618530273,12.399999618530273,5656
2009-03-04,12.149999618530273,12.550000190734863,12.050000190734863,12.149999618530273,12.149999618530273,4946
2009-03-05,12.25,12.5,10.300000190734863,11.649999618530273,11.649999618530273,16883
2009-03-06,10.600000381469727,11.699999809265137,10.600000381469727,11.550000190734863,11.550000190734863,5828
2009-03-09,11.149999618530273,11.600000381469727,11.149999618530273,11.25,11.25,4097
2009-03-12,11.399999618530273,11.75,11.149999618530273,11.350000381469727,11.350000381469727,24580
2009-03-13,11.100000381469727,12.0,11.100000381469727,11.899999618530273,11.899999618530273,4429
2009-03-16,11.5,12.350000381469727,11.0,11.949999809265137,11.949999809265137,2411
2009-03-17,11.899999618530273,12.199999809265137,11.899999618530273,12.0,12.0,9441
2009-03-18,11.149999618530273,12.5,11.149999618530273,12.350000381469727,12.350000381469727,5317
2009-03-19,12.899999618530273,13.199999809265137,12.199999809265137,12.399999618530273,12.399999618530273,4553
2009-03-20,12.199999809265137,12.850000381469727,12.199999809265137,12.75,12.75,2600
2009-03-23,12.699999809265137,12.899999618530273,12.399999618530273,12.600000381469727,12.600000381469727,10783
2009-03-24,12.850000381469727,12.899999618530273,12.25,12.350000381469727,12.350000381469727,8350
2009-03-25,12.199999809265137,12.5,12.149999618530273,12.199999809265137,12.199999809265137,2424
2009-03-26,12.600000381469727,12.600000381469727,11.699999809265137,12.149999618530273,12.149999618530273,8066
2009-03-27,12.600000381469727,13.149999618530273,12.25,13.0,13.0,36887
2009-03-30,13.0,13.449999809265137,11.800000190734863,12.25,12.25,11731
2009-03-31,12.300000190734863,12.75,12.100000381469727,12.5,12.5,15528
2009-04-01,12.25,13.300000190734863,12.25,13.050000190734863,13.050000190734863,5228
2009-04-02,13.25,13.600000381469727,12.600000381469727,13.300000190734863,13.300000190734863,21544
2009-04-06,13.350000381469727,13.649999618530273,13.100000381469727,13.350000381469727,13.350000381469727,13425
2009-04-08,13.199999809265137,14.149999618530273,13.0,14.100000381469727,14.100000381469727,6186
2009-04-09,13.449999809265137,14.550000190734863,13.449999809265137,14.350000381469727,14.350000381469727,29929
2009-04-13,14.100000381469727,15.600000381469727,14.100000381469727,15.350000381469727,15.350000381469727,26094
2009-04-15,14.199999809265137,16.450000762939453,14.199999809265137,15.699999809265137,15.699999809265137,64508
2009-04-16,15.149999618530273,16.100000381469727,15.149999618530273,15.5,15.5,42750
2009-04-17,15.800000190734863,17.399999618530273,15.5,15.550000190734863,15.550000190734863,35845
2009-04-20,15.550000190734863,16.600000381469727,15.5,15.649999618530273,15.649999618530273,5891
2009-04-21,16.299999237060547,16.299999237060547,15.5,15.949999809265137,15.949999809265137,9300
2009-04-22,16.5,16.5,15.699999809265137,15.75,15.75,6273
2009-04-23,15.699999809265137,16.200000762939453,15.699999809265137,15.850000381469727,15.850000381469727,9783
2009-04-24,16.399999618530273,18.299999237060547,16.0,17.25,17.25,110662
2009-04-27,17.950000762939453,18.149999618530273,17.0,17.200000762939453,17.200000762939453,53570
2009-04-28,16.700000762939453,17.100000381469727,16.5,17.0,17.0,17611
2009-04-29,17.0,17.100000381469727,16.0,16.5,16.5,3847
2009-04-30,16.5,16.5,16.5,16.5,16.5,0
2009-05-04,16.899999618530273,17.5,16.0,16.75,16.75,9124
2009-05-05,16.5,18.25,16.299999237060547,17.25,17.25,42999
2009-05-06,16.5,17.100000381469727,16.399999618530273,16.799999237060547,16.799999237060547,18782
2009-05-07,16.899999618530273,17.899999618530273,16.100000381469727,16.299999237060547,16.299999237060547,5116
2009-05-08,16.100000381469727,16.700000762939453,16.049999237060547,16.450000762939453,16.450000762939453,14711
2009-05-11,17.5,17.5,16.049999237060547,16.25,16.25,18605
2009-05-12,16.049999237060547,16.350000381469727,15.800000190734863,16.0,16.0,8805
2009-05-13,15.850000381469727,16.25,15.850000381469727,16.100000381469727,16.100000381469727,7264
2009-05-14,16.100000381469727,16.5,15.350000381469727,16.149999618530273,16.149999618530273,1637
2009-05-15,16.100000381469727,16.549999237060547,15.449999809265137,15.550000190734863,15.550000190734863,17473
2009-05-19,16.899999618530273,18.399999618530273,15.050000190734863,16.75,16.75,56727
2009-05-20,17.399999618530273,18.399999618530273,17.100000381469727,18.0,18.0,52876
2009-05-21,18.200000762939453,21.0,17.5,18.649999618530273,18.649999618530273,100238
2009-05-22,18.100000381469727,20.5,17.899999618530273,19.450000762939453,19.450000762939453,58820
2009-05-25,20.299999237060547,23.350000381469727,19.450000762939453,23.350000381469727,23.350000381469727,152878
2009-05-26,24.0,25.700000762939453,22.5,24.200000762939453,24.200000762939453,539763
2009-05-27,25.0,26.600000381469727,23.850000381469727,24.200000762939453,24.200000762939453,411096
2009-05-28,24.5,24.5,23.600000381469727,23.899999618530273,23.899999618530273,89214
2009-05-29,24.899999618530273,24.899999618530273,23.350000381469727,23.649999618530273,23.649999618530273,88128
2009-06-01,24.0,24.25,23.100000381469727,23.600000381469727,23.600000381469727,69583
2009-06-02,23.950000762939453,23.950000762939453,22.700000762939453,23.350000381469727,23.350000381469727,108449
2009-06-03,23.350000381469727,24.399999618530273,23.049999237060547,23.299999237060547,23.299999237060547,215036
2009-06-04,23.450000762939453,24.25,23.0,23.600000381469727,23.600000381469727,184893
2009-06-05,23.950000762939453,24.0,22.75,23.0,23.0,115056
2009-06-08,23.200000762939453,23.399999618530273,21.0,21.350000381469727,21.350000381469727,52561
2009-06-09,20.850000381469727,21.399999618530273,19.25,20.899999618530273,20.899999618530273,50893
2009-06-10,21.450000762939453,21.649999618530273,20.549999237060547,20.75,20.75,42500
2009-06-11,21.299999237060547,21.350000381469727,20.399999618530273,20.600000381469727,20.600000381469727,20873
2009-06-12,20.700000762939453,20.700000762939453,19.200000762939453,19.899999618530273,19.899999618530273,37900
2009-06-15,19.850000381469727,20.299999237060547,18.799999237060547,19.100000381469727,19.100000381469727,23155
2009-06-16,18.450000762939453,19.899999618530273,18.450000762939453,19.600000381469727,19.600000381469727,27442
2009-06-17,19.549999237060547,19.700000762939453,18.200000762939453,18.600000381469727,18.600000381469727,83046
2009-06-18,18.149999618530273,19.0,17.600000381469727,17.850000381469727,17.850000381469727,31909
2009-06-19,18.049999237060547,18.399999618530273,17.200000762939453,17.549999237060547,17.549999237060547,16746
2009-06-22,18.899999618530273,18.899999618530273,17.049999237060547,17.600000381469727,17.600000381469727,29000
2009-06-23,17.600000381469727,17.700000762939453,16.899999618530273,17.450000762939453,17.450000762939453,31541
2009-06-24,17.25,18.75,17.200000762939453,18.049999237060547,18.049999237060547,22516
2009-06-25,18.25,18.899999618530273,17.649999618530273,17.899999618530273,17.899999618530273,13179
2009-06-26,17.950000762939453,17.950000762939453,17.100000381469727,17.75,17.75,18171
2009-06-29,18.450000762939453,18.450000762939453,17.549999237060547,17.700000762939453,17.700000762939453,16645
2009-06-30,18.100000381469727,18.100000381469727,16.799999237060547,17.100000381469727,17.100000381469727,13646
2009-07-01,17.200000762939453,17.350000381469727,16.549999237060547,16.850000381469727,16.850000381469727,22940
2009-07-02,16.600000381469727,17.950000762939453,16.5,16.649999618530273,16.649999618530273,38889
2009-07-03,16.450000762939453,16.850000381469727,16.200000762939453,16.75,16.75,19097
2009-07-06,16.899999618530273,17.399999618530273,15.899999618530273,16.049999237060547,16.049999237060547,29234
2009-07-07,15.649999618530273,16.450000762939453,15.649999618530273,15.949999809265137,15.949999809265137,14108
2009-07-08,15.100000381469727,16.149999618530273,15.050000190734863,15.649999618530273,15.649999618530273,13012
2009-07-09,15.550000190734863,16.200000762939453,15.100000381469727,15.550000190734863,15.550000190734863,19709
2009-07-10,15.550000190734863,16.450000762939453,15.25,15.600000381469727,15.600000381469727,10680
2009-07-13,15.199999809265137,15.5,14.5,15.050000190734863,15.050000190734863,10549
2009-07-14,15.050000190734863,15.600000381469727,15.050000190734863,15.5,15.5,9359
2009-07-15,16.299999237060547,16.600000381469727,15.25,16.200000762939453,16.200000762939453,17483
2009-07-16,16.899999618530273,18.0,16.149999618530273,16.549999237060547,16.549999237060547,15357
2009-07-17,16.549999237060547,16.950000762939453,16.0,16.299999237060547,16.299999237060547,20263
2009-07-20,16.350000381469727,17.649999618530273,16.350000381469727,16.75,16.75,24365
2009-07-21,16.5,16.75,15.899999618530273,16.299999237060547,16.299999237060547,12600
2009-07-22,16.299999237060547,17.200000762939453,16.299999237060547,16.549999237060547,16.549999237060547,18394
2009-07-23,16.350000381469727,16.950000762939453,16.200000762939453,16.5,16.5,13419
2009-07-24,16.299999237060547,17.200000762939453,16.299999237060547,17.0,17.0,19400
2009-07-27,17.850000381469727,17.850000381469727,16.75,17.299999237060547,17.299999237060547,20000
2009-07-28,17.049999237060547,19.899999618530273,17.049999237060547,19.200000762939453,19.200000762939453,241826
2009-07-29,18.200000762939453,19.299999237060547,17.799999237060547,18.200000762939453,18.200000762939453,76289
2009-07-30,17.75,18.600000381469727,17.75,18.25,18.25,14412
2009-07-31,18.200000762939453,18.700000762939453,18.149999618530273,18.200000762939453,18.200000762939453,39800
2009-08-03,17.799999237060547,18.299999237060547,17.549999237060547,17.75,17.75,35558
2009-08-04,18.399999618530273,19.950000762939453,17.049999237060547,18.100000381469727,18.100000381469727,85678
2009-08-05,17.899999618530273,18.5,17.75,18.149999618530273,18.149999618530273,28787
2009-08-06,17.899999618530273,18.899999618530273,17.5,17.700000762939453,17.700000762939453,33908
2009-08-07,17.5,17.850000381469727,16.799999237060547,16.950000762939453,16.950000762939453,16430
2009-08-10,17.100000381469727,17.100000381469727,16.200000762939453,16.5,16.5,16661
2009-08-11,16.5,16.799999237060547,16.25,16.549999237060547,16.549999237060547,9940
2009-08-12,16.299999237060547,16.799999237060547,15.25,16.399999618530273,16.399999618530273,286064
2009-08-13,16.049999237060547,18.0,16.0,17.850000381469727,17.850000381469727,47671
2009-08-14,17.149999618530273,19.75,17.149999618530273,18.350000381469727,18.350000381469727,386537
2009-08-17,18.0,18.799999237060547,17.399999618530273,17.549999237060547,17.549999237060547,34523
2009-08-18,17.75,18.25,17.399999618530273,17.649999618530273,17.649999618530273,15662
2009-08-19,18.0,18.200000762939453,17.299999237060547,17.450000762939453,17.450000762939453,16973
2009-08-20,17.299999237060547,18.5,17.299999237060547,17.850000381469727,17.850000381469727,32539
2009-08-21,17.5,18.299999237060547,17.350000381469727,17.799999237060547,17.799999237060547,23728
2009-08-24,18.0,18.700000762939453,17.850000381469727,18.149999618530273,18.149999618530273,40290
2009-08-25,18.100000381469727,18.850000381469727,18.100000381469727,18.5,18.5,21400
2009-08-26,18.600000381469727,21.799999237060547,18.399999618530273,19.799999237060547,19.799999237060547,689993
2009-08-27,20.149999618530273,20.299999237060547,19.0,19.149999618530273,19.149999618530273,81266
2009-08-28,19.350000381469727,19.850000381469727,18.799999237060547,19.049999237060547,19.049999237060547,94790
2009-08-31,18.799999237060547,19.950000762939453,18.799999237060547,19.149999618530273,19.149999618530273,58170
2009-09-01,19.200000762939453,19.600000381469727,18.25,18.600000381469727,18.600000381469727,38616
2009-09-02,18.100000381469727,19.450000762939453,18.100000381469727,18.799999237060547,18.799999237060547,58794
2009-09-03,18.850000381469727,19.649999618530273,18.600000381469727,18.950000762939453,18.950000762939453,59375
2009-09-04,18.799999237060547,21.600000381469727,18.600000381469727,21.100000381469727,21.100000381469727,696452
2009-09-07,22.200000762939453,22.200000762939453,19.399999618530273,20.0,20.0,800300
2009-09-08,20.0,21.0,19.649999618530273,19.75,19.75,198301
2009-09-09,20.0,20.399999618530273,19.5,19.649999618530273,19.649999618530273,68200
2009-09-10,20.0,20.200000762939453,19.350000381469727,19.600000381469727,19.600000381469727,72161
2009-09-11,19.700000762939453,19.700000762939453,18.5,18.700000762939453,18.700000762939453,73800
2009-09-14,18.700000762939453,18.799999237060547,18.149999618530273,18.549999237060547,18.549999237060547,25400
2009-09-15,18.5,19.799999237060547,18.299999237060547,19.25,19.25,135431
2009-09-16,19.25,19.649999618530273,18.899999618530273,19.149999618530273,19.149999618530273,44445
2009-09-17,19.149999618530273,19.5,18.700000762939453,18.850000381469727,18.850000381469727,46205
2009-09-18,18.299999237060547,19.049999237060547,17.899999618530273,18.600000381469727,18.600000381469727,98329
2009-09-22,19.0,19.899999618530273,18.700000762939453,18.799999237060547,18.799999237060547,88004
2009-09-23,19.0,20.799999237060547,18.549999237060547,18.75,18.75,95444
2009-09-24,19.0,19.0,18.350000381469727,18.75,18.75,43987
2009-09-25,18.850000381469727,19.350000381469727,18.399999618530273,18.75,18.75,57330
2009-09-29,19.200000762939453,19.75,18.899999618530273,19.25,19.25,115221
2009-09-30,19.25,19.399999618530273,18.549999237060547,18.850000381469727,18.850000381469727,42924
2009-10-01,18.600000381469727,19.0,18.5,18.700000762939453,18.700000762939453,45311
2009-10-05,18.600000381469727,18.850000381469727,18.100000381469727,18.200000762939453,18.200000762939453,44982
2009-10-06,18.549999237060547,18.549999237060547,17.75,18.100000381469727,18.100000381469727,26352
2009-10-07,18.100000381469727,18.649999618530273,18.0,18.100000381469727,18.100000381469727,36355
2009-10-08,18.049999237060547,18.25,17.899999618530273,17.950000762939453,17.950000762939453,21300
2009-10-09,18.0,18.299999237060547,17.700000762939453,17.850000381469727,17.850000381469727,53637
2009-10-12,18.0,18.049999237060547,17.5,17.549999237060547,17.549999237060547,22463
2009-10-13,17.549999237060547,17.549999237060547,17.549999237060547,17.549999237060547,17.549999237060547,0
2009-10-14,17.799999237060547,18.100000381469727,17.5,17.649999618530273,17.649999618530273,42045
2009-10-15,17.450000762939453,18.0,17.299999237060547,17.799999237060547,17.799999237060547,18891
2009-10-16,18.600000381469727,18.600000381469727,17.600000381469727,17.700000762939453,17.700000762939453,30536
2009-10-20,18.100000381469727,18.149999618530273,17.700000762939453,17.75,17.75,11474
2009-10-21,17.549999237060547,17.899999618530273,17.399999618530273,17.649999618530273,17.649999618530273,28775
2009-10-22,17.950000762939453,18.0,17.549999237060547,17.600000381469727,17.600000381469727,28571
2009-10-23,17.399999618530273,17.850000381469727,17.100000381469727,17.149999618530273,17.149999618530273,37093
2009-10-26,17.899999618530273,17.899999618530273,16.549999237060547,16.850000381469727,16.850000381469727,26855
2009-10-27,17.0,17.0,16.0,16.100000381469727,16.100000381469727,32112
2009-10-28,16.799999237060547,16.950000762939453,15.600000381469727,16.049999237060547,16.049999237060547,32132
2009-10-29,15.75,16.299999237060547,15.550000190734863,16.049999237060547,16.049999237060547,36886
2009-10-30,16.549999237060547,16.700000762939453,15.850000381469727,15.949999809265137,15.949999809265137,20421
2009-11-03,15.25,15.649999618530273,14.699999809265137,14.800000190734863,14.800000190734863,27160
2009-11-04,15.25,15.25,14.25,14.800000190734863,14.800000190734863,38128
2009-11-05,14.699999809265137,15.550000190734863,14.350000381469727,15.300000190734863,15.300000190734863,27967
2009-11-06,15.449999809265137,16.100000381469727,15.149999618530273,15.649999618530273,15.649999618530273,20539
2009-11-09,15.600000381469727,16.299999237060547,15.600000381469727,16.049999237060547,16.049999237060547,43956
2009-11-10,16.100000381469727,16.149999618530273,15.699999809265137,15.75,15.75,14100
2009-11-11,15.699999809265137,15.899999618530273,15.550000190734863,15.800000190734863,15.800000190734863,14700
2009-11-12,16.200000762939453,17.399999618530273,15.800000190734863,16.549999237060547,16.549999237060547,94169
2009-11-13,16.549999237060547,18.299999237060547,16.350000381469727,17.049999237060547,17.049999237060547,223463
2009-11-16,17.700000762939453,17.799999237060547,16.5,16.850000381469727,16.850000381469727,21600
2009-11-17,16.600000381469727,17.100000381469727,16.5,16.700000762939453,16.700000762939453,21900
2009-11-18,16.75,17.700000762939453,16.549999237060547,17.0,17.0,39456
2009-11-19,17.0,17.25,16.5,16.549999237060547,16.549999237060547,24100
2009-11-20,16.350000381469727,16.950000762939453,16.350000381469727,16.649999618530273,16.649999618530273,23917
2009-11-23,16.600000381469727,16.850000381469727,16.399999618530273,16.450000762939453,16.450000762939453,11061
2009-11-24,16.200000762939453,16.649999618530273,16.0,16.399999618530273,16.399999618530273,30732
2009-11-25,16.899999618530273,17.0,16.399999618530273,16.75,16.75,26415
2009-11-26,16.700000762939453,16.899999618530273,16.649999618530273,16.75,16.75,12721
2009-11-27,16.649999618530273,17.899999618530273,16.25,17.25,17.25,79543
2009-11-30,18.0,20.700000762939453,18.0,20.700000762939453,20.700000762939453,994900
2009-12-01,21.5,24.850000381469727,20.0,24.850000381469727,24.850000381469727,1397700
2009-12-02,27.299999237060547,27.350000381469727,26.0,27.350000381469727,27.350000381469727,604000
2009-12-03,28.700000762939453,30.100000381469727,28.700000762939453,30.100000381469727,30.100000381469727,193200
2009-12-04,33.150001525878906,33.150001525878906,27.600000381469727,28.25,28.25,1188048
2009-12-07,28.0,31.100000381469727,25.799999237060547,31.100000381469727,31.100000381469727,2147600
2009-12-08,33.95000076293945,34.25,33.95000076293945,34.25,34.25,459700
2009-12-09,35.900001525878906,36.0,34.900001525878906,36.0,36.0,254700
2009-12-10,37.79999923706055,37.79999923706055,34.20000076293945,37.79999923706055,37.79999923706055,1092400
2009-12-11,39.70000076293945,39.70000076293945,39.70000076293945,39.70000076293945,39.70000076293945,179500
2009-12-14,41.70000076293945,41.70000076293945,37.75,38.099998474121094,38.099998474121094,185686
2009-12-15,38.79999923706055,40.04999923706055,36.5,37.5,37.5,272100
2009-12-16,38.900001525878906,39.400001525878906,36.04999923706055,36.900001525878906,36.900001525878906,193553
2009-12-17,38.45000076293945,38.75,37.20000076293945,38.75,38.75,85700
2009-12-18,40.400001525878906,40.70000076293945,40.0,40.70000076293945,40.70000076293945,134600
2009-12-21,42.150001525878906,42.75,38.70000076293945,42.75,42.75,99600
2009-12-22,44.900001525878906,44.900001525878906,44.79999923706055,44.900001525878906,44.900001525878906,40500
2009-12-23,47.150001525878906,47.150001525878906,47.150001525878906,47.150001525878906,47.150001525878906,39000
2009-12-24,49.400001525878906,49.54999923706055,47.0,48.95000076293945,48.95000076293945,183769
2009-12-29,50.0,51.400001525878906,50.0,51.400001525878906,51.400001525878906,38334
2009-12-30,54.0,54.0,48.849998474121094,49.650001525878906,49.650001525878906,197173
