Date,Open,High,Low,Close,Adj Close,Volume
2023-01-02,15.600000381469727,16.299999237060547,15.350000381469727,16.149999618530273,16.149999618530273,203781
2023-01-03,16.149999618530273,16.299999237060547,15.649999618530273,16.100000381469727,16.100000381469727,64228
2023-01-04,16.149999618530273,16.149999618530273,15.600000381469727,15.649999618530273,15.649999618530273,50815
2023-01-05,15.699999809265137,15.949999809265137,15.5,15.649999618530273,15.649999618530273,14660
2023-01-06,15.649999618530273,15.949999809265137,15.649999618530273,15.649999618530273,15.649999618530273,12114
2023-01-09,15.949999809265137,16.0,15.25,15.5,15.5,28002
2023-01-10,15.5,15.75,15.149999618530273,15.300000190734863,15.300000190734863,46865
2023-01-11,15.5,15.899999618530273,15.399999618530273,15.399999618530273,15.399999618530273,15125
2023-01-12,15.5,15.75,15.199999809265137,15.300000190734863,15.300000190734863,11948
2023-01-13,15.25,15.449999809265137,15.25,15.350000381469727,15.350000381469727,23406
2023-01-16,15.350000381469727,15.649999618530273,15.199999809265137,15.300000190734863,15.300000190734863,27323
2023-01-17,15.199999809265137,15.550000190734863,15.199999809265137,15.399999618530273,15.399999618530273,28512
2023-01-18,15.699999809265137,15.699999809265137,15.199999809265137,15.25,15.25,11835
2023-01-19,15.199999809265137,15.5,14.949999809265137,15.100000381469727,15.100000381469727,22487
2023-01-20,15.100000381469727,15.449999809265137,15.100000381469727,15.199999809265137,15.199999809265137,14616
2023-01-23,15.449999809265137,15.449999809265137,15.100000381469727,15.100000381469727,15.100000381469727,13397
2023-01-24,15.149999618530273,15.300000190734863,14.800000190734863,14.949999809265137,14.949999809265137,31804
2023-01-25,14.899999618530273,15.0,14.649999618530273,14.800000190734863,14.800000190734863,25203
2023-01-27,14.800000190734863,14.850000381469727,14.199999809265137,14.300000190734863,14.300000190734863,40809
2023-01-30,14.350000381469727,14.699999809265137,14.25,14.300000190734863,14.300000190734863,19136
2023-01-31,14.25,14.5,14.25,14.300000190734863,14.300000190734863,64344
2023-02-01,14.5,14.5,13.899999618530273,14.050000190734863,14.050000190734863,41690
2023-02-02,14.0,14.25,13.949999809265137,14.100000381469727,14.100000381469727,41543
2023-02-03,14.350000381469727,14.350000381469727,13.600000381469727,13.850000381469727,13.850000381469727,28025
2023-02-06,13.800000190734863,14.25,13.600000381469727,13.649999618530273,13.649999618530273,37385
2023-02-07,13.75,14.0,13.550000190734863,13.649999618530273,13.649999618530273,24125
2023-02-08,14.0,14.0,13.649999618530273,13.800000190734863,13.800000190734863,28223
2023-02-09,13.800000190734863,14.0,13.649999618530273,13.899999618530273,13.899999618530273,33284
2023-02-10,13.899999618530273,14.100000381469727,13.75,13.800000190734863,13.800000190734863,21245
2023-02-13,13.649999618530273,13.899999618530273,13.600000381469727,13.649999618530273,13.649999618530273,25381
2023-02-14,13.800000190734863,13.850000381469727,13.300000190734863,13.550000190734863,13.550000190734863,38443
2023-02-15,13.550000190734863,13.550000190734863,13.25,13.300000190734863,13.300000190734863,28901
2023-02-16,13.300000190734863,13.5,13.199999809265137,13.300000190734863,13.300000190734863,11976
2023-02-17,13.5,13.550000190734863,13.449999809265137,13.5,13.5,15786
2023-02-20,13.899999618530273,13.899999618530273,13.350000381469727,13.399999618530273,13.399999618530273,15491
2023-02-21,13.600000381469727,13.600000381469727,13.149999618530273,13.199999809265137,13.199999809265137,6447
2023-02-22,13.350000381469727,13.5,12.850000381469727,13.300000190734863,13.300000190734863,44764
2023-02-23,13.5,13.5,13.050000190734863,13.100000381469727,13.100000381469727,20511
2023-02-24,13.300000190734863,13.300000190734863,12.899999618530273,13.0,13.0,35307
2023-02-27,12.949999809265137,13.25,11.100000381469727,11.449999809265137,11.449999809265137,191413
2023-02-28,11.699999809265137,11.800000190734863,10.800000190734863,11.600000381469727,11.600000381469727,61979
2023-03-01,11.550000190734863,12.600000381469727,11.5,12.350000381469727,12.350000381469727,27768
2023-03-02,12.350000381469727,12.949999809265137,12.350000381469727,12.850000381469727,12.850000381469727,55062
2023-03-03,12.949999809265137,13.0,12.5,12.699999809265137,12.699999809265137,20435
2023-03-06,12.399999618530273,12.899999618530273,12.350000381469727,12.75,12.75,15467
2023-03-08,12.75,12.850000381469727,12.600000381469727,12.75,12.75,49571
2023-03-09,12.949999809265137,13.0,12.5,12.649999618530273,12.649999618530273,16999
2023-03-10,12.5,12.649999618530273,11.449999809265137,11.649999618530273,11.649999618530273,168268
2023-03-13,11.899999618530273,11.899999618530273,11.199999809265137,11.25,11.25,55417
2023-03-14,11.399999618530273,11.550000190734863,11.199999809265137,11.399999618530273,11.399999618530273,20366
2023-03-15,11.699999809265137,11.800000190734863,11.050000190734863,11.5,11.5,39002
2023-03-16,11.399999618530273,11.649999618530273,11.199999809265137,11.399999618530273,11.399999618530273,53656
2023-03-17,11.699999809265137,11.850000381469727,11.149999618530273,11.399999618530273,11.399999618530273,27032
2023-03-20,11.0,11.600000381469727,10.850000381469727,11.0,11.0,74589
2023-03-21,11.0,11.199999809265137,10.949999809265137,11.0,11.0,33583
2023-03-22,11.0,11.199999809265137,10.649999618530273,10.899999618530273,10.899999618530273,53162
2023-03-23,10.850000381469727,11.350000381469727,10.850000381469727,11.0,11.0,40747
2023-03-24,10.899999618530273,11.149999618530273,10.699999809265137,10.699999809265137,10.699999809265137,55739
2023-03-27,10.800000190734863,10.899999618530273,10.350000381469727,10.399999618530273,10.399999618530273,76455
2023-03-28,10.899999618530273,10.899999618530273,10.399999618530273,10.600000381469727,10.600000381469727,75817
2023-03-29,10.5,11.100000381469727,10.449999809265137,10.550000190734863,10.550000190734863,67761
2023-03-31,10.600000381469727,11.75,10.550000190734863,11.149999618530273,11.149999618530273,226589
2023-04-03,11.399999618530273,13.199999809265137,11.149999618530273,12.899999618530273,12.899999618530273,127643
2023-04-05,13.0,13.199999809265137,11.600000381469727,12.100000381469727,12.100000381469727,129271
2023-04-06,12.449999809265137,12.449999809265137,11.5,12.050000190734863,12.050000190734863,45240
2023-04-10,12.5,12.5,11.5,11.850000381469727,11.850000381469727,35059
2023-04-11,12.25,13.350000381469727,11.699999809265137,13.100000381469727,13.100000381469727,385063
2023-04-12,13.25,13.449999809265137,12.550000190734863,12.75,12.75,261270
2023-04-13,12.75,13.449999809265137,12.550000190734863,13.0,13.0,77438
2023-04-17,13.300000190734863,13.300000190734863,12.550000190734863,12.649999618530273,12.649999618530273,318032
2023-04-18,12.800000190734863,13.0,12.649999618530273,12.899999618530273,12.899999618530273,45150
2023-04-19,13.0,13.0,12.5,12.600000381469727,12.600000381469727,30715
2023-04-20,12.600000381469727,12.800000190734863,12.5,12.550000190734863,12.550000190734863,28953
2023-04-21,12.600000381469727,12.600000381469727,12.050000190734863,12.199999809265137,12.199999809265137,30220
2023-04-24,12.199999809265137,12.699999809265137,11.949999809265137,12.350000381469727,12.350000381469727,35633
2023-04-25,12.350000381469727,12.649999618530273,12.199999809265137,12.5,12.5,23398
2023-04-26,12.699999809265137,12.699999809265137,12.25,12.550000190734863,12.550000190734863,13187
2023-04-27,12.350000381469727,12.800000190734863,12.350000381469727,12.699999809265137,12.699999809265137,32800
2023-04-28,12.75,12.850000381469727,12.550000190734863,12.75,12.75,38587
2023-05-02,12.75,12.899999618530273,12.600000381469727,12.699999809265137,12.699999809265137,19301
2023-05-03,12.699999809265137,12.949999809265137,12.350000381469727,12.850000381469727,12.850000381469727,47637
2023-05-04,12.850000381469727,13.350000381469727,12.600000381469727,12.899999618530273,12.899999618530273,94715
2023-05-05,12.949999809265137,13.0,12.699999809265137,12.850000381469727,12.850000381469727,15433
2023-05-08,12.949999809265137,14.25,12.800000190734863,13.800000190734863,13.800000190734863,292716
2023-05-09,13.800000190734863,14.0,13.5,13.5,13.5,29964
2023-05-10,13.5,13.5,13.100000381469727,13.100000381469727,13.100000381469727,27844
2023-05-11,13.100000381469727,13.399999618530273,13.100000381469727,13.199999809265137,13.199999809265137,32865
2023-05-12,13.399999618530273,13.399999618530273,13.0,13.050000190734863,13.050000190734863,20811
2023-05-15,13.100000381469727,13.699999809265137,13.050000190734863,13.25,13.25,40407
2023-05-16,13.449999809265137,13.449999809265137,13.050000190734863,13.100000381469727,13.100000381469727,20477
2023-05-17,13.050000190734863,13.199999809265137,12.800000190734863,12.850000381469727,12.850000381469727,44517
2023-05-18,13.0,13.199999809265137,12.75,12.800000190734863,12.800000190734863,122584
2023-05-19,12.949999809265137,13.0,12.699999809265137,12.949999809265137,12.949999809265137,43391
2023-05-22,12.949999809265137,13.0,12.600000381469727,12.949999809265137,12.949999809265137,33677
2023-05-23,13.050000190734863,13.050000190734863,12.75,12.800000190734863,12.800000190734863,36906
2023-05-24,12.800000190734863,13.449999809265137,12.699999809265137,13.300000190734863,13.300000190734863,91142
2023-05-25,13.300000190734863,13.899999618530273,13.050000190734863,13.550000190734863,13.550000190734863,107762
2023-05-26,13.550000190734863,13.949999809265137,13.350000381469727,13.550000190734863,13.550000190734863,69704
2023-05-29,13.600000381469727,13.899999618530273,13.5,13.5,13.5,59427
2023-05-30,13.75,13.75,13.100000381469727,13.399999618530273,13.399999618530273,7102
2023-05-31,13.550000190734863,13.550000190734863,12.600000381469727,12.899999618530273,12.899999618530273,73407
2023-06-01,13.0,13.25,12.899999618530273,13.149999618530273,13.149999618530273,14121
2023-06-02,13.199999809265137,13.25,12.949999809265137,12.949999809265137,12.949999809265137,34554
2023-06-05,13.199999809265137,13.300000190734863,12.949999809265137,13.050000190734863,13.050000190734863,25800
2023-06-06,13.25,13.25,12.850000381469727,12.899999618530273,12.899999618530273,53223
2023-06-07,12.899999618530273,13.949999809265137,12.899999618530273,13.399999618530273,13.399999618530273,379055
2023-06-08,13.399999618530273,13.75,12.949999809265137,13.0,13.0,72170
2023-06-09,13.0,13.399999618530273,13.0,13.199999809265137,13.199999809265137,47457
2023-06-12,13.100000381469727,13.399999618530273,13.050000190734863,13.149999618530273,13.149999618530273,19511
2023-06-13,13.100000381469727,13.5,13.100000381469727,13.25,13.25,69487
2023-06-14,13.199999809265137,13.800000190734863,13.050000190734863,13.600000381469727,13.600000381469727,137447
2023-06-15,13.75,13.800000190734863,13.149999618530273,13.25,13.25,53466
2023-06-16,13.25,13.5,13.100000381469727,13.449999809265137,13.449999809265137,35712
2023-06-19,13.25,13.699999809265137,13.149999618530273,13.199999809265137,13.199999809265137,35306
2023-06-20,13.350000381469727,13.600000381469727,13.149999618530273,13.399999618530273,13.399999618530273,54384
2023-06-21,13.399999618530273,13.600000381469727,13.199999809265137,13.399999618530273,13.399999618530273,28021
2023-06-22,13.600000381469727,13.649999618530273,13.199999809265137,13.25,13.25,63592
2023-06-23,13.25,13.25,13.0,13.100000381469727,13.100000381469727,25770
2023-06-26,13.25,13.5,13.050000190734863,13.25,13.25,39287
2023-06-27,13.25,13.449999809265137,13.100000381469727,13.149999618530273,13.149999618530273,21179
2023-06-30,12.949999809265137,13.5,12.949999809265137,13.199999809265137,13.199999809265137,35450
2023-07-03,13.449999809265137,13.449999809265137,13.149999618530273,13.399999618530273,13.399999618530273,32766
2023-07-04,13.5,13.5,13.149999618530273,13.199999809265137,13.199999809265137,21348
2023-07-05,13.199999809265137,13.5,13.149999618530273,13.199999809265137,13.199999809265137,29920
2023-07-06,13.199999809265137,13.350000381469727,13.100000381469727,13.25,13.25,35865
2023-07-07,13.25,13.300000190734863,12.550000190734863,12.899999618530273,12.899999618530273,80502
2023-07-10,12.899999618530273,13.0,12.75,12.800000190734863,12.800000190734863,21224
2023-07-11,12.800000190734863,13.0,12.699999809265137,12.800000190734863,12.800000190734863,17037
2023-07-12,13.0,13.0,12.600000381469727,12.699999809265137,12.699999809265137,41933
2023-07-13,12.75,12.850000381469727,12.649999618530273,12.699999809265137,12.699999809265137,20198
2023-07-14,12.699999809265137,12.800000190734863,12.600000381469727,12.649999618530273,12.649999618530273,27678
2023-07-17,12.600000381469727,12.899999618530273,12.600000381469727,12.75,12.75,24144
2023-07-18,12.699999809265137,12.850000381469727,12.550000190734863,12.600000381469727,12.600000381469727,25982
2023-07-19,12.600000381469727,12.75,12.550000190734863,12.649999618530273,12.649999618530273,25872
2023-07-20,12.75,12.75,12.449999809265137,12.550000190734863,12.550000190734863,61917
2023-07-21,12.5,12.600000381469727,12.5,12.5,12.5,47815
2023-07-24,12.5,12.5,12.25,12.300000190734863,12.300000190734863,49225
2023-07-25,12.399999618530273,12.600000381469727,12.300000190734863,12.449999809265137,12.449999809265137,26571
2023-07-26,12.5,12.550000190734863,12.350000381469727,12.5,12.5,19922
2023-07-27,12.600000381469727,12.600000381469727,12.399999618530273,12.399999618530273,12.399999618530273,25966
2023-07-28,12.399999618530273,12.5,12.25,12.350000381469727,12.350000381469727,39887
2023-07-31,12.350000381469727,12.550000190734863,12.300000190734863,12.350000381469727,12.350000381469727,38504
2023-08-01,12.5,12.600000381469727,12.350000381469727,12.449999809265137,12.449999809265137,46949
2023-08-02,12.5,12.5,12.199999809265137,12.199999809265137,12.199999809265137,45963
2023-08-03,12.399999618530273,12.399999618530273,12.149999618530273,12.25,12.25,15672
2023-08-04,12.449999809265137,12.449999809265137,12.25,12.300000190734863,12.300000190734863,14086
2023-08-07,12.199999809265137,12.399999618530273,12.149999618530273,12.149999618530273,12.149999618530273,62814
2023-08-08,12.149999618530273,12.399999618530273,12.149999618530273,12.25,12.25,17359
2023-08-09,12.25,12.350000381469727,12.100000381469727,12.199999809265137,12.199999809265137,38536
2023-08-10,12.199999809265137,12.300000190734863,12.149999618530273,12.149999618530273,12.149999618530273,32586
2023-08-11,12.25,13.5,12.149999618530273,12.899999618530273,12.899999618530273,512852
2023-08-14,12.899999618530273,13.199999809265137,12.600000381469727,12.75,12.75,104174
2023-08-16,12.600000381469727,13.899999618530273,12.600000381469727,13.5,13.5,439086
2023-08-17,13.600000381469727,13.800000190734863,13.25,13.350000381469727,13.350000381469727,182585
2023-08-18,13.350000381469727,13.5,12.949999809265137,13.050000190734863,13.050000190734863,89271
2023-08-21,13.25,13.399999618530273,13.0,13.100000381469727,13.100000381469727,38510
2023-08-22,13.199999809265137,13.800000190734863,12.949999809265137,13.050000190734863,13.050000190734863,91362
2023-08-23,13.149999618530273,13.75,13.100000381469727,13.25,13.25,210215
2023-08-24,13.300000190734863,13.5,13.149999618530273,13.300000190734863,13.300000190734863,103660
2023-08-25,13.350000381469727,13.699999809265137,13.149999618530273,13.449999809265137,13.449999809265137,73262
2023-08-28,13.5,13.600000381469727,13.0,13.199999809265137,13.199999809265137,142296
2023-08-29,13.199999809265137,13.399999618530273,13.050000190734863,13.100000381469727,13.100000381469727,57892
2023-08-30,13.25,13.449999809265137,13.0,13.100000381469727,13.100000381469727,122109
2023-08-31,13.100000381469727,13.300000190734863,12.899999618530273,12.949999809265137,12.949999809265137,99024
2023-09-01,13.0,13.149999618530273,12.949999809265137,13.050000190734863,13.050000190734863,72154
2023-09-04,13.100000381469727,13.449999809265137,13.0,13.25,13.25,193449
2023-09-05,13.449999809265137,15.899999618530273,13.350000381469727,15.899999618530273,15.899999618530273,4035942
2023-09-06,16.100000381469727,17.399999618530273,15.050000190734863,16.75,16.75,2250822
2023-09-07,17.049999237060547,18.549999237060547,16.600000381469727,17.0,17.0,1367174
2023-09-08,17.399999618530273,17.399999618530273,16.100000381469727,16.25,16.25,426389
2023-09-11,16.5,16.649999618530273,16.049999237060547,16.149999618530273,16.149999618530273,138717
2023-09-12,16.350000381469727,16.350000381469727,14.800000190734863,14.949999809265137,14.949999809265137,333266
2023-09-13,14.850000381469727,15.800000190734863,14.550000190734863,15.649999618530273,15.649999618530273,221663
2023-09-14,15.949999809265137,16.0,15.5,15.550000190734863,15.550000190734863,81241
2023-09-15,15.5,16.5,15.399999618530273,16.200000762939453,16.200000762939453,340043
2023-09-18,16.450000762939453,16.450000762939453,15.5,15.75,15.75,97704
2023-09-20,15.699999809265137,15.699999809265137,15.050000190734863,15.199999809265137,15.199999809265137,123029
2023-09-21,15.149999618530273,15.75,15.100000381469727,15.199999809265137,15.199999809265137,71633
2023-09-22,15.199999809265137,15.399999618530273,14.949999809265137,15.050000190734863,15.050000190734863,51555
2023-09-25,15.300000190734863,15.649999618530273,15.149999618530273,15.399999618530273,15.399999618530273,75749
2023-09-26,15.5,15.5,15.050000190734863,15.100000381469727,15.100000381469727,130187
2023-09-27,15.300000190734863,15.399999618530273,14.800000190734863,15.0,15.0,56339
2023-09-28,15.0,15.300000190734863,14.75,14.800000190734863,14.800000190734863,91717
2023-09-29,14.800000190734863,15.0,14.600000381469727,14.699999809265137,14.699999809265137,34641
2023-10-03,14.800000190734863,15.0,14.600000381469727,14.850000381469727,14.850000381469727,39180
2023-10-04,15.0,15.0,14.800000190734863,14.949999809265137,14.949999809265137,50070
2023-10-05,14.899999618530273,15.0,14.550000190734863,14.699999809265137,14.699999809265137,32080
2023-10-06,14.949999809265137,15.25,14.75,15.050000190734863,15.050000190734863,49813
2023-10-09,15.050000190734863,15.149999618530273,14.600000381469727,14.699999809265137,14.699999809265137,38518
2023-10-10,14.899999618530273,15.050000190734863,14.399999618530273,14.600000381469727,14.600000381469727,69657
2023-10-11,14.649999618530273,16.299999237060547,14.600000381469727,16.149999618530273,16.149999618530273,721276
2023-10-12,16.399999618530273,16.399999618530273,15.5,15.899999618530273,15.899999618530273,198664
2023-10-13,16.0,16.0,15.5,15.550000190734863,15.550000190734863,105239
2023-10-16,15.800000190734863,16.0,15.149999618530273,15.399999618530273,15.399999618530273,205377
2023-10-17,15.449999809265137,15.699999809265137,15.25,15.350000381469727,15.350000381469727,93352
2023-10-18,15.350000381469727,15.5,14.949999809265137,15.100000381469727,15.100000381469727,108343
2023-10-19,15.100000381469727,15.199999809265137,14.800000190734863,14.949999809265137,14.949999809265137,83492
2023-10-20,15.050000190734863,15.399999618530273,14.800000190734863,15.0,15.0,42346
2023-10-23,15.199999809265137,15.199999809265137,13.550000190734863,13.800000190734863,13.800000190734863,97044
2023-10-25,14.050000190734863,14.550000190734863,13.800000190734863,14.050000190734863,14.050000190734863,422522
2023-10-26,13.850000381469727,14.100000381469727,13.25,13.5,13.5,142623
2023-10-27,13.5,14.100000381469727,13.5,13.699999809265137,13.699999809265137,328751
2023-10-30,13.699999809265137,14.100000381469727,13.649999618530273,13.75,13.75,229545
2023-10-31,13.75,13.949999809265137,13.600000381469727,13.800000190734863,13.800000190734863,42043
2023-11-01,14.0,14.100000381469727,13.699999809265137,13.800000190734863,13.800000190734863,276966
2023-11-02,13.800000190734863,14.199999809265137,13.800000190734863,13.899999618530273,13.899999618530273,500116
2023-11-03,14.100000381469727,14.399999618530273,14.0,14.050000190734863,14.050000190734863,255031
2023-11-06,14.0,14.699999809265137,14.0,14.5,14.5,814688
2023-11-07,14.699999809265137,14.699999809265137,14.399999618530273,14.449999809265137,14.449999809265137,156940
2023-11-08,14.75,15.050000190734863,14.600000381469727,14.800000190734863,14.800000190734863,431103
2023-11-09,14.75,15.050000190734863,14.350000381469727,14.449999809265137,14.449999809265137,635529
2023-11-10,14.649999618530273,16.200000762939453,14.449999809265137,15.649999618530273,15.649999618530273,1345542
2023-11-13,15.699999809265137,15.800000190734863,15.300000190734863,15.449999809265137,15.449999809265137,327788
2023-11-15,15.5,15.75,15.25,15.350000381469727,15.350000381469727,473832
2023-11-16,15.350000381469727,15.449999809265137,15.050000190734863,15.199999809265137,15.199999809265137,872176
2023-11-17,15.100000381469727,15.75,14.949999809265137,15.5,15.5,955462
2023-11-20,15.350000381469727,17.799999237060547,15.350000381469727,16.950000762939453,16.950000762939453,2020875
2023-11-21,17.75,18.200000762939453,17.299999237060547,17.950000762939453,17.950000762939453,1713511
2023-11-22,18.149999618530273,18.149999618530273,16.399999618530273,16.700000762939453,16.700000762939453,653775
2023-11-23,16.700000762939453,17.149999618530273,16.5,16.700000762939453,16.700000762939453,274110
2023-11-24,16.899999618530273,17.299999237060547,16.799999237060547,17.049999237060547,17.049999237060547,498725
2023-11-28,17.450000762939453,17.5,16.600000381469727,16.75,16.75,705319
2023-11-29,17.0,17.0,16.5,16.549999237060547,16.549999237060547,734543
2023-11-30,16.600000381469727,16.75,15.800000190734863,15.949999809265137,15.949999809265137,525311
2023-12-01,16.200000762939453,16.5,15.899999618530273,16.149999618530273,16.149999618530273,484883
2023-12-04,16.5,16.5,16.049999237060547,16.149999618530273,16.149999618530273,77410
2023-12-05,16.299999237060547,16.350000381469727,15.75,16.049999237060547,16.049999237060547,221430
2023-12-06,16.399999618530273,17.600000381469727,16.350000381469727,17.0,17.0,972702
2023-12-07,17.200000762939453,17.649999618530273,16.5,17.100000381469727,17.100000381469727,323111
2023-12-08,17.350000381469727,17.350000381469727,16.649999618530273,16.75,16.75,146779
2023-12-11,17.0,17.0,16.450000762939453,16.549999237060547,16.549999237060547,219606
2023-12-12,16.75,16.950000762939453,16.350000381469727,16.450000762939453,16.450000762939453,192802
2023-12-13,16.600000381469727,16.75,16.200000762939453,16.399999618530273,16.399999618530273,132498
2023-12-14,16.5,16.799999237060547,16.149999618530273,16.350000381469727,16.350000381469727,155896
2023-12-15,16.5,16.5,16.149999618530273,16.200000762939453,16.200000762939453,81797
2023-12-18,16.25,19.399999618530273,16.25,18.899999618530273,18.899999618530273,2511418
2023-12-19,19.600000381469727,19.799999237060547,18.049999237060547,18.950000762939453,18.950000762939453,1926599
2023-12-20,18.700000762939453,19.799999237060547,17.899999618530273,18.149999618530273,18.149999618530273,1198050
2023-12-21,18.399999618530273,19.299999237060547,17.600000381469727,18.950000762939453,18.950000762939453,753780
2023-12-22,19.350000381469727,19.350000381469727,18.149999618530273,18.350000381469727,18.350000381469727,283104
2023-12-26,18.600000381469727,18.850000381469727,17.75,18.200000762939453,18.200000762939453,254886
2023-12-27,18.25,18.700000762939453,17.299999237060547,17.5,17.5,285999
2023-12-28,17.600000381469727,17.700000762939453,16.5,16.649999618530273,16.649999618530273,429151
2023-12-29,16.799999237060547,17.950000762939453,16.75,17.5,17.5,225203
