Date,Open,High,Low,Close,Adj Close,Volume
2003-01-01,3.950000047683716,4.0,3.9000000953674316,3.950000047683716,3.950000047683716,63965
2003-01-02,3.950000047683716,4.0,3.9000000953674316,3.950000047683716,3.950000047683716,74477
2003-01-03,3.9000000953674316,4.199999809265137,3.9000000953674316,3.9000000953674316,3.9000000953674316,332002
2003-01-06,3.9000000953674316,3.950000047683716,3.8499999046325684,3.8499999046325684,3.8499999046325684,44252
2003-01-07,3.9000000953674316,3.9000000953674316,3.799999952316284,3.799999952316284,3.799999952316284,44643
2003-01-08,3.8499999046325684,3.950000047683716,3.799999952316284,3.9000000953674316,3.9000000953674316,17925
2003-01-09,3.9000000953674316,3.9000000953674316,3.799999952316284,3.799999952316284,3.799999952316284,46538
2003-01-10,3.799999952316284,3.8499999046325684,3.75,3.75,3.75,35390
2003-01-13,3.799999952316284,3.8499999046325684,3.75,3.75,3.75,18560
2003-01-14,3.799999952316284,3.799999952316284,3.75,3.799999952316284,3.799999952316284,15049
2003-01-15,3.950000047683716,3.950000047683716,3.700000047683716,3.75,3.75,17200
2003-01-16,3.799999952316284,3.799999952316284,3.700000047683716,3.75,3.75,21602
2003-01-17,3.700000047683716,3.75,3.6500000953674316,3.700000047683716,3.700000047683716,40248
2003-01-20,3.700000047683716,3.8499999046325684,3.700000047683716,3.700000047683716,3.700000047683716,68386
2003-01-21,3.799999952316284,3.799999952316284,3.5999999046325684,3.6500000953674316,3.6500000953674316,129456
2003-01-22,3.75,3.75,3.549999952316284,3.5999999046325684,3.5999999046325684,115244
2003-01-23,3.75,3.75,3.5,3.549999952316284,3.549999952316284,180501
2003-01-24,3.5999999046325684,3.6500000953674316,3.5,3.5,3.5,47363
2003-01-27,3.549999952316284,3.549999952316284,3.4000000953674316,3.4000000953674316,3.4000000953674316,38205
2003-01-28,3.3499999046325684,3.5,3.299999952316284,3.4000000953674316,3.4000000953674316,23828
2003-01-29,3.450000047683716,3.5,3.4000000953674316,3.4000000953674316,3.4000000953674316,32061
2003-01-30,3.4000000953674316,3.5,3.3499999046325684,3.4000000953674316,3.4000000953674316,55690
2003-01-31,3.4000000953674316,3.450000047683716,3.3499999046325684,3.3499999046325684,3.3499999046325684,48601
2003-02-03,3.5999999046325684,3.5999999046325684,3.200000047683716,3.25,3.25,138650
2003-02-04,3.3499999046325684,3.3499999046325684,3.200000047683716,3.25,3.25,70621
2003-02-05,3.25,3.25,3.200000047683716,3.25,3.25,36400
2003-02-06,3.200000047683716,3.25,3.1500000953674316,3.200000047683716,3.200000047683716,45745
2003-02-07,3.200000047683716,3.4000000953674316,3.0999999046325684,3.200000047683716,3.200000047683716,92903
2003-02-10,3.25,3.25,3.1500000953674316,3.1500000953674316,3.1500000953674316,30329
2003-02-11,3.1500000953674316,3.3499999046325684,2.950000047683716,2.950000047683716,2.950000047683716,1077276
2003-02-12,3.0,3.1500000953674316,2.950000047683716,3.049999952316284,3.049999952316284,91753
2003-02-13,3.049999952316284,3.049999952316284,3.049999952316284,3.049999952316284,3.049999952316284,0
2003-02-14,3.049999952316284,3.0999999046325684,3.0,3.0,3.0,82498
2003-02-17,3.049999952316284,3.049999952316284,2.950000047683716,3.0,3.0,150083
2003-02-18,3.0,3.0,2.950000047683716,2.950000047683716,2.950000047683716,112443
2003-02-19,3.0,3.049999952316284,2.950000047683716,2.950000047683716,2.950000047683716,78203
2003-02-20,2.950000047683716,3.0,2.9000000953674316,2.950000047683716,2.950000047683716,139346
2003-02-21,3.5,3.5,2.9000000953674316,3.0,3.0,66477
2003-02-24,2.950000047683716,3.0,2.9000000953674316,2.950000047683716,2.950000047683716,84209
2003-02-25,3.0,3.0,2.8499999046325684,2.9000000953674316,2.9000000953674316,80610
2003-02-26,2.950000047683716,2.950000047683716,2.8499999046325684,2.9000000953674316,2.9000000953674316,79056
2003-02-27,2.9000000953674316,2.950000047683716,2.8499999046325684,2.950000047683716,2.950000047683716,55725
2003-02-28,3.0,3.0,2.75,2.799999952316284,2.799999952316284,214201
2003-03-03,2.8499999046325684,2.8499999046325684,2.799999952316284,2.799999952316284,2.799999952316284,46200
2003-03-04,2.799999952316284,2.8499999046325684,2.700000047683716,2.75,2.75,42776
2003-03-05,2.700000047683716,2.75,2.200000047683716,2.3499999046325684,2.3499999046325684,548040
2003-03-06,2.3499999046325684,2.5,2.1500000953674316,2.200000047683716,2.200000047683716,270353
2003-03-07,2.200000047683716,2.299999952316284,2.200000047683716,2.200000047683716,2.200000047683716,173932
2003-03-10,2.049999952316284,2.299999952316284,1.899999976158142,1.9500000476837158,1.9500000476837158,204599
2003-03-11,2.049999952316284,2.0999999046325684,1.9500000476837158,2.0,2.0,169400
2003-03-12,2.0,2.0999999046325684,1.9500000476837158,1.9500000476837158,1.9500000476837158,192902
2003-03-13,2.0,2.049999952316284,1.850000023841858,1.899999976158142,1.899999976158142,263071
2003-03-14,1.899999976158142,1.899999976158142,1.899999976158142,1.899999976158142,1.899999976158142,0
2003-03-17,1.9500000476837158,2.0,1.850000023841858,1.850000023841858,1.850000023841858,199692
2003-03-18,1.850000023841858,1.850000023841858,1.850000023841858,1.850000023841858,1.850000023841858,0
2003-03-19,2.049999952316284,2.200000047683716,1.899999976158142,2.0999999046325684,2.0999999046325684,624244
2003-03-20,2.1500000953674316,2.450000047683716,2.0999999046325684,2.299999952316284,2.299999952316284,312485
2003-03-21,2.25,2.4000000953674316,2.25,2.299999952316284,2.299999952316284,97950
2003-03-24,2.3499999046325684,2.3499999046325684,2.1500000953674316,2.1500000953674316,2.1500000953674316,66510
2003-03-25,2.1500000953674316,2.1500000953674316,2.049999952316284,2.0999999046325684,2.0999999046325684,109651
2003-03-26,2.1500000953674316,2.1500000953674316,2.049999952316284,2.0999999046325684,2.0999999046325684,201704
2003-03-27,2.1500000953674316,2.1500000953674316,2.049999952316284,2.049999952316284,2.049999952316284,130312
2003-03-28,2.049999952316284,2.0999999046325684,2.0,2.0999999046325684,2.0999999046325684,157388
2003-03-31,2.049999952316284,2.200000047683716,2.0,2.0999999046325684,2.0999999046325684,203807
2003-04-01,2.200000047683716,2.4000000953674316,2.1500000953674316,2.3499999046325684,2.3499999046325684,153916
2003-04-02,2.6500000953674316,2.6500000953674316,2.25,2.450000047683716,2.450000047683716,71466
2003-04-03,2.799999952316284,2.799999952316284,2.450000047683716,2.5,2.5,114071
2003-04-04,2.75,2.75,2.450000047683716,2.5999999046325684,2.5999999046325684,167243
2003-04-07,2.8499999046325684,2.9000000953674316,2.5999999046325684,2.799999952316284,2.799999952316284,165128
2003-04-08,3.049999952316284,3.049999952316284,2.5999999046325684,2.6500000953674316,2.6500000953674316,127471
2003-04-09,2.799999952316284,2.799999952316284,2.299999952316284,2.4000000953674316,2.4000000953674316,201250
2003-04-10,2.4000000953674316,2.700000047683716,2.3499999046325684,2.450000047683716,2.450000047683716,137152
2003-04-11,2.5,2.75,2.450000047683716,2.6500000953674316,2.6500000953674316,219835
2003-04-14,2.6500000953674316,2.6500000953674316,2.6500000953674316,2.6500000953674316,2.6500000953674316,0
2003-04-15,2.700000047683716,2.8499999046325684,2.549999952316284,2.6500000953674316,2.6500000953674316,56840
2003-04-16,2.5999999046325684,2.700000047683716,2.5999999046325684,2.5999999046325684,2.5999999046325684,25552
2003-04-17,2.549999952316284,2.6500000953674316,2.5,2.549999952316284,2.549999952316284,74840
2003-04-18,2.549999952316284,2.549999952316284,2.549999952316284,2.549999952316284,2.549999952316284,0
2003-04-21,2.549999952316284,2.75,2.549999952316284,2.6500000953674316,2.6500000953674316,33261
2003-04-22,2.6500000953674316,2.700000047683716,2.549999952316284,2.5999999046325684,2.5999999046325684,175880
2003-04-23,2.5999999046325684,2.700000047683716,2.549999952316284,2.549999952316284,2.549999952316284,85769
2003-04-24,2.6500000953674316,2.6500000953674316,2.5,2.549999952316284,2.549999952316284,38322
2003-04-25,2.6500000953674316,2.6500000953674316,2.5,2.5,2.5,37013
2003-04-28,2.5,2.5999999046325684,2.5,2.5,2.5,43960
2003-04-29,2.549999952316284,2.549999952316284,2.5,2.549999952316284,2.549999952316284,32980
2003-04-30,2.5,2.549999952316284,2.4000000953674316,2.549999952316284,2.549999952316284,68042
2003-05-01,2.549999952316284,2.549999952316284,2.549999952316284,2.549999952316284,2.549999952316284,0
2003-05-02,2.450000047683716,2.5999999046325684,2.450000047683716,2.5999999046325684,2.5999999046325684,52685
2003-05-05,2.5999999046325684,2.700000047683716,2.5999999046325684,2.700000047683716,2.700000047683716,124991
2003-05-06,2.75,2.75,2.6500000953674316,2.700000047683716,2.700000047683716,44600
2003-05-07,2.6500000953674316,2.75,2.6500000953674316,2.700000047683716,2.700000047683716,30869
2003-05-08,2.700000047683716,2.75,2.6500000953674316,2.700000047683716,2.700000047683716,80481
2003-05-09,2.700000047683716,2.75,2.5999999046325684,2.6500000953674316,2.6500000953674316,46292
2003-05-12,2.700000047683716,2.75,2.6500000953674316,2.6500000953674316,2.6500000953674316,67030
2003-05-13,2.700000047683716,2.799999952316284,2.6500000953674316,2.75,2.75,80701
2003-05-14,2.700000047683716,2.8499999046325684,2.700000047683716,2.8499999046325684,2.8499999046325684,152990
2003-05-15,2.8499999046325684,3.450000047683716,2.799999952316284,3.450000047683716,3.450000047683716,634035
2003-05-16,3.75,3.799999952316284,3.25,3.4000000953674316,3.4000000953674316,503526
2003-05-19,3.4000000953674316,3.5999999046325684,3.200000047683716,3.25,3.25,304082
2003-05-20,3.25,3.299999952316284,3.1500000953674316,3.299999952316284,3.299999952316284,161187
2003-05-21,3.299999952316284,3.4000000953674316,3.200000047683716,3.3499999046325684,3.3499999046325684,244057
2003-05-22,3.3499999046325684,3.700000047683716,3.25,3.4000000953674316,3.4000000953674316,275934
2003-05-23,3.549999952316284,3.6500000953674316,3.450000047683716,3.549999952316284,3.549999952316284,301916
2003-05-26,3.450000047683716,3.950000047683716,3.450000047683716,3.9000000953674316,3.9000000953674316,580743
2003-05-27,3.8499999046325684,4.0,3.549999952316284,3.5999999046325684,3.5999999046325684,437708
2003-05-28,3.75,3.75,3.5,3.5,3.5,340154
2003-05-29,3.549999952316284,3.6500000953674316,3.299999952316284,3.3499999046325684,3.3499999046325684,474604
2003-05-30,3.4000000953674316,3.799999952316284,3.4000000953674316,3.6500000953674316,3.6500000953674316,387209
2003-06-02,3.75,3.950000047683716,3.6500000953674316,3.8499999046325684,3.8499999046325684,320237
2003-06-03,3.950000047683716,4.099999904632568,3.8499999046325684,3.8499999046325684,3.8499999046325684,282251
2003-06-04,4.0,4.099999904632568,3.8499999046325684,3.950000047683716,3.950000047683716,288965
2003-06-05,4.099999904632568,4.75,4.0,4.75,4.75,1895345
2003-06-06,5.0,5.699999809265137,4.900000095367432,5.699999809265137,5.699999809265137,4072627
2003-06-09,6.050000190734863,6.300000190734863,5.349999904632568,5.449999809265137,5.449999809265137,2190749
2003-06-10,5.599999904632568,5.650000095367432,4.900000095367432,4.900000095367432,4.900000095367432,1098459
2003-06-11,4.949999809265137,5.199999809265137,4.650000095367432,4.800000190734863,4.800000190734863,498586
2003-06-12,4.849999904632568,5.099999904632568,4.849999904632568,5.050000190734863,5.050000190734863,430432
2003-06-13,5.150000095367432,5.599999904632568,4.900000095367432,5.300000190734863,5.300000190734863,1128315
2003-06-16,5.400000095367432,5.75,5.199999809265137,5.25,5.25,589149
2003-06-17,5.5,5.800000190734863,5.199999809265137,5.800000190734863,5.800000190734863,1592887
2003-06-18,5.900000095367432,5.900000095367432,5.449999809265137,5.5,5.5,579083
2003-06-19,5.599999904632568,6.0,5.400000095367432,5.550000190734863,5.550000190734863,819908
2003-06-20,5.25,5.550000190734863,5.25,5.349999904632568,5.349999904632568,430149
2003-06-23,5.400000095367432,5.449999809265137,5.050000190734863,5.099999904632568,5.099999904632568,306480
2003-06-24,5.349999904632568,5.349999904632568,5.050000190734863,5.150000095367432,5.150000095367432,235941
2003-06-25,5.25,5.699999809265137,5.199999809265137,5.349999904632568,5.349999904632568,441429
2003-06-26,5.5,5.5,5.099999904632568,5.199999809265137,5.199999809265137,315082
2003-06-27,5.199999809265137,5.349999904632568,5.0,5.099999904632568,5.099999904632568,383997
2003-06-30,5.300000190734863,5.349999904632568,5.050000190734863,5.099999904632568,5.099999904632568,304002
2003-07-01,4.800000190734863,5.550000190734863,4.800000190734863,5.400000095367432,5.400000095367432,759226
2003-07-02,5.800000190734863,5.949999809265137,5.599999904632568,5.849999904632568,5.849999904632568,1972654
2003-07-03,6.0,6.25,5.650000095367432,5.75,5.75,1448476
2003-07-04,5.949999809265137,5.949999809265137,5.550000190734863,5.599999904632568,5.599999904632568,395551
2003-07-07,6.0,6.150000095367432,5.800000190734863,5.900000095367432,5.900000095367432,960796
2003-07-08,6.099999904632568,6.150000095367432,5.800000190734863,5.849999904632568,5.849999904632568,782346
2003-07-09,6.0,6.099999904632568,5.5,5.550000190734863,5.550000190734863,407036
2003-07-10,5.550000190734863,5.599999904632568,5.25,5.300000190734863,5.300000190734863,248182
2003-07-11,5.150000095367432,5.449999809265137,5.150000095367432,5.25,5.25,173925
2003-07-14,5.150000095367432,5.400000095367432,5.150000095367432,5.300000190734863,5.300000190734863,246284
2003-07-15,5.25,5.300000190734863,5.0,5.050000190734863,5.050000190734863,294061
2003-07-16,5.050000190734863,5.349999904632568,5.050000190734863,5.150000095367432,5.150000095367432,233240
2003-07-17,5.199999809265137,5.5,5.050000190734863,5.099999904632568,5.099999904632568,482836
2003-07-18,5.0,5.25,5.0,5.050000190734863,5.050000190734863,213475
2003-07-21,5.099999904632568,5.099999904632568,4.800000190734863,4.849999904632568,4.849999904632568,164853
2003-07-22,4.949999809265137,5.0,4.699999809265137,4.75,4.75,130471
2003-07-23,4.650000095367432,5.0,4.650000095367432,4.75,4.75,141459
2003-07-24,4.949999809265137,5.25,4.949999809265137,5.050000190734863,5.050000190734863,236294
2003-07-25,5.050000190734863,5.25,5.050000190734863,5.099999904632568,5.099999904632568,177360
2003-07-28,5.25,5.300000190734863,5.050000190734863,5.099999904632568,5.099999904632568,190966
2003-07-29,5.050000190734863,5.199999809265137,4.949999809265137,5.050000190734863,5.050000190734863,125815
2003-07-30,5.199999809265137,5.599999904632568,4.949999809265137,5.550000190734863,5.550000190734863,717200
2003-07-31,5.75,5.800000190734863,5.199999809265137,5.25,5.25,456201
2003-08-01,5.5,5.699999809265137,5.349999904632568,5.449999809265137,5.449999809265137,554352
2003-08-04,5.5,6.0,5.5,6.0,6.0,1638899
2003-08-05,6.400000095367432,6.550000190734863,5.849999904632568,5.900000095367432,5.900000095367432,1577707
2003-08-06,5.699999809265137,6.5,5.400000095367432,6.25,6.25,1340268
2003-08-07,6.099999904632568,6.650000095367432,6.099999904632568,6.349999904632568,6.349999904632568,824234
2003-08-08,6.5,6.699999809265137,6.449999809265137,6.5,6.5,1235334
2003-08-11,6.75,7.150000095367432,6.75,7.150000095367432,7.150000095367432,948221
2003-08-12,7.699999809265137,7.900000095367432,7.5,7.900000095367432,7.900000095367432,1171331
2003-08-13,8.649999618530273,8.699999809265137,7.199999809265137,8.300000190734863,8.300000190734863,4572479
2003-08-14,8.399999618530273,8.699999809265137,7.849999904632568,7.949999809265137,7.949999809265137,2159300
2003-08-15,7.949999809265137,7.949999809265137,7.949999809265137,7.949999809265137,7.949999809265137,0
2003-08-18,8.699999809265137,8.699999809265137,7.75,8.199999809265137,8.199999809265137,2131780
2003-08-19,8.699999809265137,9.0,7.849999904632568,7.949999809265137,7.949999809265137,1963313
2003-08-20,8.199999809265137,8.5,7.849999904632568,8.100000381469727,8.100000381469727,1444941
2003-08-21,8.899999618530273,8.949999809265137,8.600000381469727,8.949999809265137,8.949999809265137,2627684
2003-08-22,9.649999618530273,9.850000381469727,9.050000190734863,9.25,9.25,3264246
2003-08-25,9.600000381469727,9.600000381469727,8.350000381469727,8.350000381469727,8.350000381469727,1816523
2003-08-26,8.199999809265137,9.199999809265137,8.149999618530273,9.100000381469727,9.100000381469727,1787141
2003-08-27,9.0,9.300000190734863,8.5,8.600000381469727,8.600000381469727,871816
2003-08-28,8.800000190734863,8.800000190734863,8.300000190734863,8.350000381469727,8.350000381469727,465239
2003-08-29,8.350000381469727,8.5,7.900000095367432,8.050000190734863,8.050000190734863,604160
2003-09-01,8.300000190734863,8.399999618530273,7.949999809265137,8.0,8.0,683848
2003-09-02,8.300000190734863,8.5,7.599999904632568,7.800000190734863,7.800000190734863,669202
2003-09-03,7.650000095367432,7.849999904632568,7.400000095367432,7.5,7.5,537167
2003-09-04,7.449999809265137,7.849999904632568,7.150000095367432,7.5,7.5,418346
2003-09-05,7.599999904632568,8.25,7.599999904632568,8.25,8.25,1078132
2003-09-08,8.649999618530273,9.100000381469727,8.350000381469727,8.600000381469727,8.600000381469727,1828965
2003-09-09,8.0,9.399999618530273,7.75,8.0,8.0,1761098
2003-09-10,8.25,8.25,7.650000095367432,8.149999618530273,8.149999618530273,680262
2003-09-11,7.449999809265137,8.149999618530273,7.449999809265137,7.75,7.75,1243357
2003-09-12,8.0,8.0,7.550000190734863,7.599999904632568,7.599999904632568,699315
2003-09-15,7.849999904632568,7.849999904632568,7.449999809265137,7.550000190734863,7.550000190734863,553687
2003-09-16,7.599999904632568,7.650000095367432,7.550000190734863,7.599999904632568,7.599999904632568,393545
2003-09-17,7.550000190734863,7.699999809265137,7.550000190734863,7.599999904632568,7.599999904632568,311034
2003-09-18,7.650000095367432,7.650000095367432,7.550000190734863,7.599999904632568,7.599999904632568,513369
2003-09-19,7.650000095367432,7.650000095367432,7.550000190734863,7.599999904632568,7.599999904632568,550976
2003-09-22,7.650000095367432,7.699999809265137,7.599999904632568,7.599999904632568,7.599999904632568,235125
2003-09-23,7.650000095367432,7.75,7.599999904632568,7.699999809265137,7.699999809265137,230585
2003-09-24,7.650000095367432,7.900000095367432,7.650000095367432,7.650000095367432,7.650000095367432,240641
2003-09-25,7.699999809265137,7.699999809265137,7.650000095367432,7.650000095367432,7.650000095367432,366890
2003-09-26,7.650000095367432,8.25,7.650000095367432,8.050000190734863,8.050000190734863,841272
2003-09-29,8.199999809265137,8.550000190734863,8.0,8.050000190734863,8.050000190734863,790301
2003-09-30,8.350000381469727,8.800000190734863,8.0,8.449999809265137,8.449999809265137,1155949
2003-10-01,8.5,8.550000190734863,8.25,8.25,8.25,506890
2003-10-02,8.25,8.25,8.25,8.25,8.25,0
2003-10-03,8.149999618530273,8.350000381469727,7.949999809265137,8.199999809265137,8.199999809265137,330684
2003-10-06,8.199999809265137,8.25,8.050000190734863,8.050000190734863,8.050000190734863,243336
2003-10-07,8.100000381469727,8.25,7.900000095367432,7.900000095367432,7.900000095367432,378331
2003-10-08,8.0,8.050000190734863,7.900000095367432,7.900000095367432,7.900000095367432,176915
2003-10-09,7.900000095367432,8.100000381469727,7.849999904632568,8.0,8.0,319907
2003-10-10,8.300000190734863,8.300000190734863,7.900000095367432,7.900000095367432,7.900000095367432,199915
2003-10-13,8.0,8.100000381469727,7.849999904632568,7.900000095367432,7.900000095367432,248185
2003-10-14,8.300000190734863,8.300000190734863,7.849999904632568,7.849999904632568,7.849999904632568,228179
2003-10-15,7.900000095367432,7.900000095367432,7.849999904632568,7.849999904632568,7.849999904632568,135524
2003-10-16,7.849999904632568,8.050000190734863,7.849999904632568,7.849999904632568,7.849999904632568,243526
2003-10-17,8.0,8.5,7.949999809265137,8.0,8.0,567665
2003-10-20,8.100000381469727,8.100000381469727,7.900000095367432,7.900000095367432,7.900000095367432,274416
2003-10-21,7.949999809265137,8.0,7.849999904632568,7.900000095367432,7.900000095367432,230779
2003-10-22,7.949999809265137,7.949999809265137,7.849999904632568,7.849999904632568,7.849999904632568,231371
2003-10-23,7.800000190734863,7.949999809265137,7.800000190734863,7.900000095367432,7.900000095367432,207294
2003-10-24,7.900000095367432,8.0,7.849999904632568,7.900000095367432,7.900000095367432,127591
2003-10-27,8.199999809265137,8.199999809265137,7.900000095367432,7.949999809265137,7.949999809265137,183102
2003-10-28,8.050000190734863,8.100000381469727,7.900000095367432,7.900000095367432,7.900000095367432,302545
2003-10-29,8.0,8.0,7.900000095367432,7.949999809265137,7.949999809265137,174736
2003-10-30,7.949999809265137,8.100000381469727,7.949999809265137,7.949999809265137,7.949999809265137,223382
2003-10-31,8.050000190734863,8.100000381469727,7.949999809265137,7.949999809265137,7.949999809265137,200939
2003-11-03,8.050000190734863,8.050000190734863,7.900000095367432,7.949999809265137,7.949999809265137,222929
2003-11-04,7.949999809265137,8.100000381469727,7.900000095367432,8.0,8.0,462035
2003-11-05,7.949999809265137,8.050000190734863,7.949999809265137,8.0,8.0,212427
2003-11-06,8.0,8.050000190734863,7.949999809265137,8.0,8.0,190228
2003-11-07,8.0,8.100000381469727,8.0,8.0,8.0,311649
2003-11-10,8.199999809265137,8.25,8.0,8.199999809265137,8.199999809265137,301497
2003-11-11,8.300000190734863,9.050000190734863,8.300000190734863,9.050000190734863,9.050000190734863,1329523
2003-11-12,9.300000190734863,10.0,9.300000190734863,10.0,10.0,937218
2003-11-13,10.850000381469727,11.0,10.699999809265137,11.0,11.0,455739
2003-11-14,11.949999809265137,12.100000381469727,10.300000190734863,10.899999618530273,10.899999618530273,5320850
2003-11-17,12.050000190734863,12.25,11.0,11.25,11.25,887127
2003-11-18,11.25,11.350000381469727,10.550000190734863,10.649999618530273,10.649999618530273,759993
2003-11-19,10.100000381469727,10.949999809265137,10.100000381469727,10.300000190734863,10.300000190734863,758551
2003-11-20,10.75,10.75,9.350000381469727,9.699999809265137,9.699999809265137,611193
2003-11-21,9.5,9.899999618530273,9.100000381469727,9.550000190734863,9.550000190734863,731107
2003-11-24,9.899999618530273,10.0,9.199999809265137,9.850000381469727,9.850000381469727,307399
2003-11-25,9.800000190734863,10.699999809265137,9.75,10.350000381469727,10.350000381469727,878599
2003-11-26,10.350000381469727,10.350000381469727,10.350000381469727,10.350000381469727,10.350000381469727,0
2003-11-27,10.550000190734863,10.600000381469727,9.949999809265137,10.050000190734863,10.050000190734863,546665
2003-11-28,11.0,11.0,9.800000190734863,10.0,10.0,367732
2003-12-01,10.25,10.25,9.899999618530273,10.100000381469727,10.100000381469727,389698
2003-12-02,10.149999618530273,10.149999618530273,9.75,9.949999809265137,9.949999809265137,284935
2003-12-03,10.199999809265137,10.199999809265137,9.300000190734863,9.899999618530273,9.899999618530273,335254
2003-12-04,9.550000190734863,10.0,9.550000190734863,9.850000381469727,9.850000381469727,249117
2003-12-05,10.0,10.850000381469727,9.649999618530273,10.0,10.0,629969
2003-12-08,10.0,10.25,9.850000381469727,9.949999809265137,9.949999809265137,214101
2003-12-09,10.199999809265137,10.850000381469727,9.800000190734863,10.600000381469727,10.600000381469727,792487
2003-12-10,10.899999618530273,11.0,10.399999618530273,10.600000381469727,10.600000381469727,818769
2003-12-11,10.600000381469727,11.25,10.449999809265137,10.600000381469727,10.600000381469727,800467
2003-12-12,10.899999618530273,11.300000190734863,10.5,10.899999618530273,10.899999618530273,987671
2003-12-15,11.100000381469727,11.350000381469727,10.800000190734863,10.850000381469727,10.850000381469727,483472
2003-12-16,11.0,11.0,10.5,10.699999809265137,10.699999809265137,404354
2003-12-17,10.600000381469727,10.800000190734863,10.449999809265137,10.550000190734863,10.550000190734863,241318
2003-12-18,10.800000190734863,10.800000190734863,10.5,10.600000381469727,10.600000381469727,326664
2003-12-19,10.5,10.899999618530273,10.399999618530273,10.5,10.5,398134
2003-12-22,10.75,10.75,10.25,10.550000190734863,10.550000190734863,344549
2003-12-23,10.25,10.699999809265137,10.25,10.350000381469727,10.350000381469727,464036
2003-12-24,10.25,10.600000381469727,9.949999809265137,10.199999809265137,10.199999809265137,387686
2003-12-25,10.199999809265137,10.199999809265137,10.199999809265137,10.199999809265137,10.199999809265137,0
2003-12-26,10.100000381469727,10.800000190734863,10.100000381469727,10.5,10.5,540093
2003-12-29,10.649999618530273,11.550000190734863,10.5,11.550000190734863,11.550000190734863,693144
2003-12-30,11.25,12.75,10.5,12.300000190734863,12.300000190734863,3246241
