Date,Open,High,Low,Close,Adj Close,Volume
2016-01-01,26.700000762939453,26.75,25.700000762939453,26.549999237060547,26.549999237060547,219498
2016-01-04,26.600000381469727,27.350000381469727,25.899999618530273,26.5,26.5,181677
2016-01-05,26.5,27.200000762939453,26.0,26.25,26.25,109649
2016-01-06,26.100000381469727,27.5,26.049999237060547,26.350000381469727,26.350000381469727,129277
2016-01-07,25.549999237060547,25.950000762939453,25.049999237060547,25.049999237060547,25.049999237060547,92398
2016-01-08,24.850000381469727,25.350000381469727,24.600000381469727,24.950000762939453,24.950000762939453,45831
2016-01-11,24.950000762939453,25.200000762939453,23.75,23.950000762939453,23.950000762939453,117852
2016-01-12,23.950000762939453,24.450000762939453,23.25,23.5,23.5,56092
2016-01-13,23.950000762939453,24.649999618530273,22.600000381469727,23.200000762939453,23.200000762939453,80528
2016-01-14,23.0,23.0,22.049999237060547,22.299999237060547,22.299999237060547,52904
2016-01-15,22.200000762939453,22.5,21.299999237060547,21.649999618530273,21.649999618530273,55849
2016-01-18,21.049999237060547,21.649999618530273,20.600000381469727,20.600000381469727,20.600000381469727,65873
2016-01-19,20.600000381469727,20.799999237060547,19.600000381469727,20.0,20.0,97396
2016-01-20,19.549999237060547,19.899999618530273,19.0,19.0,19.0,25141
2016-01-21,19.399999618530273,19.399999618530273,18.049999237060547,18.049999237060547,18.049999237060547,85838
2016-01-22,17.899999618530273,18.950000762939453,17.899999618530273,18.950000762939453,18.950000762939453,50639
2016-01-25,19.5,19.850000381469727,19.350000381469727,19.850000381469727,19.850000381469727,42035
2016-01-27,20.549999237060547,20.799999237060547,20.549999237060547,20.799999237060547,20.799999237060547,17362
2016-01-28,21.799999237060547,21.799999237060547,21.799999237060547,21.799999237060547,21.799999237060547,19174
2016-01-29,22.850000381469727,22.850000381469727,22.850000381469727,22.850000381469727,22.850000381469727,17762
2016-02-01,23.950000762939453,23.950000762939453,23.950000762939453,23.950000762939453,23.950000762939453,12048
2016-02-02,25.100000381469727,25.100000381469727,23.200000762939453,24.75,24.75,464359
2016-02-03,24.0,24.200000762939453,23.549999237060547,23.799999237060547,23.799999237060547,72653
2016-02-04,24.75,24.950000762939453,24.049999237060547,24.149999618530273,24.149999618530273,44093
2016-02-05,23.5,24.799999237060547,23.049999237060547,23.350000381469727,23.350000381469727,22977
2016-02-08,23.299999237060547,23.850000381469727,22.299999237060547,23.100000381469727,23.100000381469727,8732
2016-02-09,23.899999618530273,24.25,22.649999618530273,23.100000381469727,23.100000381469727,11902
2016-02-10,23.100000381469727,23.5,21.950000762939453,21.950000762939453,21.950000762939453,21808
2016-02-11,21.950000762939453,21.950000762939453,20.899999618530273,20.899999618530273,20.899999618530273,17146
2016-02-12,21.0,21.600000381469727,19.899999618530273,19.899999618530273,19.899999618530273,31206
2016-02-15,19.899999618530273,20.850000381469727,19.850000381469727,20.850000381469727,20.850000381469727,13377
2016-02-16,21.799999237060547,21.850000381469727,21.5,21.850000381469727,21.850000381469727,79249
2016-02-17,20.899999618530273,22.0,20.899999618530273,21.850000381469727,21.850000381469727,29627
2016-02-18,22.75,22.799999237060547,21.950000762939453,22.100000381469727,22.100000381469727,46417
2016-02-19,22.200000762939453,22.5,21.850000381469727,21.850000381469727,21.850000381469727,18052
2016-02-22,22.600000381469727,22.600000381469727,21.100000381469727,21.850000381469727,21.850000381469727,9920
2016-02-23,21.200000762939453,22.450000762939453,21.200000762939453,22.049999237060547,22.049999237060547,27551
2016-02-24,22.100000381469727,22.899999618530273,22.0,22.350000381469727,22.350000381469727,12294
2016-02-25,22.200000762939453,23.0,22.0,22.75,22.75,21940
2016-02-26,22.5,23.200000762939453,22.5,22.600000381469727,22.600000381469727,41226
2016-02-29,22.5,22.899999618530273,22.450000762939453,22.549999237060547,22.549999237060547,19258
2016-03-01,22.450000762939453,23.649999618530273,22.450000762939453,23.450000762939453,23.450000762939453,36156
2016-03-02,23.649999618530273,24.600000381469727,23.5,24.600000381469727,24.600000381469727,37551
2016-03-03,25.799999237060547,25.799999237060547,23.5,23.899999618530273,23.899999618530273,76870
2016-03-04,24.0,25.799999237060547,23.950000762939453,24.799999237060547,24.799999237060547,31344
2016-03-08,24.0,26.950000762939453,23.600000381469727,24.75,24.75,107892
2016-03-09,25.0,27.200000762939453,24.25,27.100000381469727,27.100000381469727,382485
2016-03-10,27.299999237060547,27.850000381469727,25.049999237060547,25.600000381469727,25.600000381469727,158495
2016-03-11,25.549999237060547,27.149999618530273,24.850000381469727,26.700000762939453,26.700000762939453,95470
2016-03-14,27.0,27.25,26.25,26.399999618530273,26.399999618530273,26170
2016-03-15,26.049999237060547,26.850000381469727,25.600000381469727,26.049999237060547,26.049999237060547,33873
2016-03-16,25.200000762939453,26.450000762939453,25.049999237060547,26.049999237060547,26.049999237060547,39064
2016-03-17,26.0,26.600000381469727,25.049999237060547,25.25,25.25,25760
2016-03-18,25.200000762939453,26.799999237060547,25.200000762939453,25.799999237060547,25.799999237060547,64928
2016-03-21,25.75,27.0,25.0,26.450000762939453,26.450000762939453,53729
2016-03-22,25.200000762939453,26.450000762939453,25.149999618530273,25.950000762939453,25.950000762939453,33039
2016-03-23,25.5,26.0,25.200000762939453,25.549999237060547,25.549999237060547,32813
2016-03-28,25.049999237060547,25.649999618530273,25.0,25.200000762939453,25.200000762939453,27333
2016-03-29,24.299999237060547,25.100000381469727,24.299999237060547,24.899999618530273,24.899999618530273,30147
2016-03-30,24.600000381469727,26.5,24.600000381469727,25.700000762939453,25.700000762939453,28013
2016-03-31,25.200000762939453,26.649999618530273,25.149999618530273,25.899999618530273,25.899999618530273,46719
2016-04-01,25.5,26.899999618530273,24.649999618530273,25.450000762939453,25.450000762939453,60296
2016-04-04,25.399999618530273,26.100000381469727,24.899999618530273,25.25,25.25,19249
2016-04-05,25.200000762939453,26.0,25.200000762939453,25.950000762939453,25.950000762939453,23891
2016-04-06,25.299999237060547,26.5,25.299999237060547,26.350000381469727,26.350000381469727,29745
2016-04-07,26.0,26.0,23.149999618530273,25.0,25.0,107217
2016-04-08,26.399999618530273,26.399999618530273,24.700000762939453,25.100000381469727,25.100000381469727,39962
2016-04-11,24.549999237060547,25.600000381469727,24.299999237060547,24.5,24.5,30785
2016-04-12,24.450000762939453,24.899999618530273,24.100000381469727,24.200000762939453,24.200000762939453,14604
2016-04-13,24.5,24.950000762939453,23.799999237060547,23.950000762939453,23.950000762939453,34759
2016-04-18,23.950000762939453,23.950000762939453,23.0,23.200000762939453,23.200000762939453,34414
2016-04-20,23.700000762939453,24.75,21.399999618530273,23.850000381469727,23.850000381469727,32672
2016-04-21,23.799999237060547,24.399999618530273,23.399999618530273,23.549999237060547,23.549999237060547,12693
2016-04-22,23.399999618530273,23.950000762939453,23.299999237060547,23.600000381469727,23.600000381469727,10492
2016-04-25,24.399999618530273,24.399999618530273,23.100000381469727,23.549999237060547,23.549999237060547,7784
2016-04-26,23.399999618530273,23.75,22.799999237060547,23.0,23.0,16556
2016-04-27,23.049999237060547,24.100000381469727,23.0,23.450000762939453,23.450000762939453,13537
2016-04-28,24.299999237060547,24.299999237060547,22.25,22.600000381469727,22.600000381469727,53234
2016-04-29,22.5,23.0,22.049999237060547,22.5,22.5,24048
2016-05-02,22.5,23.399999618530273,22.299999237060547,22.549999237060547,22.549999237060547,10202
2016-05-03,22.700000762939453,23.450000762939453,22.700000762939453,22.850000381469727,22.850000381469727,8812
2016-05-04,22.850000381469727,23.049999237060547,22.700000762939453,22.850000381469727,22.850000381469727,7337
2016-05-05,22.5,23.399999618530273,22.100000381469727,22.899999618530273,22.899999618530273,13912
2016-05-06,22.5,23.0,22.350000381469727,22.5,22.5,11313
2016-05-09,22.399999618530273,24.450000762939453,22.399999618530273,23.200000762939453,23.200000762939453,44316
2016-05-10,22.899999618530273,24.799999237060547,22.899999618530273,23.899999618530273,23.899999618530273,63430
2016-05-11,23.75,24.0,22.899999618530273,23.450000762939453,23.450000762939453,13769
2016-05-12,23.200000762939453,24.100000381469727,23.200000762939453,23.899999618530273,23.899999618530273,17777
2016-05-13,23.600000381469727,24.299999237060547,22.899999618530273,23.100000381469727,23.100000381469727,33986
2016-05-16,23.100000381469727,23.899999618530273,22.700000762939453,23.299999237060547,23.299999237060547,14669
2016-05-17,23.299999237060547,23.649999618530273,23.049999237060547,23.450000762939453,23.450000762939453,13707
2016-05-18,23.100000381469727,23.799999237060547,23.049999237060547,23.100000381469727,23.100000381469727,5010
2016-05-19,23.25,23.75,20.399999618530273,21.299999237060547,21.299999237060547,120167
2016-05-20,21.350000381469727,22.200000762939453,21.350000381469727,21.899999618530273,21.899999618530273,13142
2016-05-23,21.649999618530273,22.799999237060547,21.649999618530273,22.299999237060547,22.299999237060547,17896
2016-05-24,22.5,26.299999237060547,22.100000381469727,24.799999237060547,24.799999237060547,277850
2016-05-25,25.049999237060547,25.399999618530273,24.25,24.700000762939453,24.700000762939453,84536
2016-05-26,24.399999618530273,24.799999237060547,22.600000381469727,23.25,23.25,78544
2016-05-27,23.399999618530273,24.649999618530273,19.549999237060547,23.149999618530273,23.149999618530273,619035
2016-05-30,23.0,24.0,22.299999237060547,23.5,23.5,84426
2016-05-31,23.299999237060547,23.600000381469727,22.799999237060547,23.0,23.0,13960
2016-06-01,22.799999237060547,24.700000762939453,22.299999237060547,24.549999237060547,24.549999237060547,61780
2016-06-02,25.200000762939453,25.600000381469727,23.149999618530273,24.75,24.75,165333
2016-06-03,25.25,25.25,24.200000762939453,24.25,24.25,42450
2016-06-06,23.450000762939453,26.200000762939453,23.450000762939453,25.0,25.0,87886
2016-06-07,25.0,25.0,23.799999237060547,24.600000381469727,24.600000381469727,26249
2016-06-08,24.5,25.0,24.049999237060547,24.450000762939453,24.450000762939453,78500
2016-06-09,24.350000381469727,25.200000762939453,24.350000381469727,24.899999618530273,24.899999618530273,48448
2016-06-10,25.0,25.5,24.200000762939453,24.549999237060547,24.549999237060547,75612
2016-06-13,24.5,24.5,23.5,23.950000762939453,23.950000762939453,20179
2016-06-14,24.600000381469727,24.600000381469727,24.0,24.149999618530273,24.149999618530273,21249
2016-06-15,24.299999237060547,26.299999237060547,23.850000381469727,25.649999618530273,25.649999618530273,266806
2016-06-16,25.299999237060547,25.700000762939453,24.399999618530273,25.25,25.25,72596
2016-06-17,24.950000762939453,25.649999618530273,24.549999237060547,25.25,25.25,63364
2016-06-20,25.0,25.299999237060547,24.549999237060547,25.149999618530273,25.149999618530273,26593
2016-06-21,25.200000762939453,25.200000762939453,24.600000381469727,25.0,25.0,37847
2016-06-22,24.950000762939453,25.25,24.649999618530273,24.75,24.75,27902
2016-06-23,24.5,25.0,24.399999618530273,24.700000762939453,24.700000762939453,28283
2016-06-24,24.5,24.899999618530273,23.399999618530273,24.600000381469727,24.600000381469727,29649
2016-06-27,25.0,25.0,24.049999237060547,24.5,24.5,15239
2016-06-28,24.5,25.450000762939453,23.899999618530273,24.049999237060547,24.049999237060547,21787
2016-06-29,24.149999618530273,24.5,23.75,24.100000381469727,24.100000381469727,43296
2016-06-30,26.5,27.950000762939453,24.549999237060547,26.149999618530273,26.149999618530273,278630
2016-07-01,26.5,27.299999237060547,26.0,26.350000381469727,26.350000381469727,99838
2016-07-04,25.899999618530273,26.950000762939453,25.5,26.399999618530273,26.399999618530273,36329
2016-07-05,26.0,26.450000762939453,25.75,25.899999618530273,25.899999618530273,43908
2016-07-07,25.799999237060547,26.299999237060547,25.549999237060547,25.700000762939453,25.700000762939453,15555
2016-07-08,26.0,26.0,25.5,25.549999237060547,25.549999237060547,16489
2016-07-11,25.5,26.0,25.200000762939453,25.899999618530273,25.899999618530273,45376
2016-07-12,25.600000381469727,26.350000381469727,25.5,25.799999237060547,25.799999237060547,46470
2016-07-13,25.299999237060547,26.5,25.299999237060547,25.799999237060547,25.799999237060547,28351
2016-07-14,25.5,26.25,25.5,25.700000762939453,25.700000762939453,52425
2016-07-15,25.5,26.299999237060547,25.100000381469727,25.549999237060547,25.549999237060547,31820
2016-07-18,25.5,26.0,25.049999237060547,25.200000762939453,25.200000762939453,21082
2016-07-19,25.100000381469727,25.549999237060547,24.149999618530273,24.450000762939453,24.450000762939453,60524
2016-07-20,24.450000762939453,24.850000381469727,24.0,24.149999618530273,24.149999618530273,25296
2016-07-21,24.0,24.649999618530273,23.5,24.0,24.0,23853
2016-07-22,24.0,25.399999618530273,23.5,24.25,24.25,66963
2016-07-25,24.5,25.0,23.75,24.0,24.0,122326
2016-07-26,24.200000762939453,24.649999618530273,24.0,24.049999237060547,24.049999237060547,39766
2016-07-27,24.100000381469727,24.649999618530273,23.950000762939453,24.0,24.0,26206
2016-07-28,23.700000762939453,24.549999237060547,23.299999237060547,23.850000381469727,23.850000381469727,27765
2016-07-29,23.799999237060547,24.299999237060547,23.75,23.850000381469727,23.850000381469727,27498
2016-08-01,23.700000762939453,24.399999618530273,23.700000762939453,24.0,24.0,19801
2016-08-02,23.700000762939453,24.100000381469727,23.5,23.850000381469727,23.850000381469727,27124
2016-08-03,23.850000381469727,24.0,23.299999237060547,23.5,23.5,15817
2016-08-04,23.299999237060547,24.149999618530273,23.299999237060547,23.799999237060547,23.799999237060547,7115
2016-08-05,23.299999237060547,24.0,23.299999237060547,23.549999237060547,23.549999237060547,8010
2016-08-08,23.0,25.0,23.0,23.649999618530273,23.649999618530273,11213
2016-08-09,23.799999237060547,23.950000762939453,23.350000381469727,23.75,23.75,9577
2016-08-10,23.5,25.0,23.350000381469727,23.450000762939453,23.450000762939453,62970
2016-08-11,21.399999618530273,23.75,21.399999618530273,23.049999237060547,23.049999237060547,44163
2016-08-12,23.850000381469727,23.850000381469727,23.350000381469727,23.5,23.5,15359
2016-08-16,23.299999237060547,23.950000762939453,23.299999237060547,23.5,23.5,8420
2016-08-17,23.399999618530273,23.399999618530273,23.049999237060547,23.100000381469727,23.100000381469727,13441
2016-08-18,23.0,23.5,22.25,22.600000381469727,22.600000381469727,25478
2016-08-19,23.0,23.25,22.5,22.799999237060547,22.799999237060547,11306
2016-08-22,22.600000381469727,24.799999237060547,22.600000381469727,23.600000381469727,23.600000381469727,54698
2016-08-23,23.5,23.600000381469727,22.850000381469727,23.25,23.25,15870
2016-08-24,23.149999618530273,24.5,22.600000381469727,23.850000381469727,23.850000381469727,23552
2016-08-25,23.350000381469727,26.399999618530273,23.100000381469727,25.049999237060547,25.049999237060547,250527
2016-08-26,25.75,25.899999618530273,24.149999618530273,25.549999237060547,25.549999237060547,89336
2016-08-29,25.399999618530273,25.450000762939453,24.399999618530273,24.600000381469727,24.600000381469727,26231
2016-08-30,24.600000381469727,25.0,24.200000762939453,24.549999237060547,24.549999237060547,14841
2016-08-31,24.299999237060547,24.899999618530273,23.799999237060547,24.049999237060547,24.049999237060547,30539
2016-09-01,24.0,24.450000762939453,23.200000762939453,23.600000381469727,23.600000381469727,17383
2016-09-02,23.549999237060547,24.399999618530273,23.549999237060547,24.049999237060547,24.049999237060547,58971
2016-09-06,24.5,25.0,23.899999618530273,24.549999237060547,24.549999237060547,30053
2016-09-07,24.799999237060547,28.899999618530273,24.799999237060547,27.200000762939453,27.200000762939453,517002
2016-09-08,26.899999618530273,28.75,26.700000762939453,27.899999618530273,27.899999618530273,218096
2016-09-09,27.350000381469727,27.350000381469727,25.0,26.0,26.0,242148
2016-09-12,25.799999237060547,27.299999237060547,24.600000381469727,25.399999618530273,25.399999618530273,107788
2016-09-14,25.149999618530273,28.850000381469727,24.5,26.899999618530273,26.899999618530273,364697
2016-09-15,27.75,27.799999237060547,26.0,26.5,26.5,58366
2016-09-16,27.0,29.799999237060547,26.0,27.200000762939453,27.200000762939453,486847
2016-09-19,27.200000762939453,28.25,27.200000762939453,27.5,27.5,65659
2016-09-20,27.75,27.950000762939453,26.0,26.299999237060547,26.299999237060547,78714
2016-09-21,26.950000762939453,26.950000762939453,25.700000762939453,26.0,26.0,37885
2016-09-22,26.0,28.75,26.0,26.75,26.75,307076
2016-09-23,27.149999618530273,27.299999237060547,26.299999237060547,26.600000381469727,26.600000381469727,25359
2016-09-26,26.600000381469727,27.100000381469727,26.600000381469727,26.75,26.75,31546
2016-09-27,26.299999237060547,27.950000762939453,25.700000762939453,25.950000762939453,25.950000762939453,46566
2016-09-28,25.899999618530273,27.600000381469727,25.899999618530273,26.200000762939453,26.200000762939453,93103
2016-09-29,26.200000762939453,26.950000762939453,24.0,25.100000381469727,25.100000381469727,99872
2016-09-30,26.0,26.0,24.5,25.5,25.5,8390
2016-10-03,25.450000762939453,26.950000762939453,25.350000381469727,25.700000762939453,25.700000762939453,38413
2016-10-04,25.5,26.75,24.549999237060547,26.399999618530273,26.399999618530273,49358
2016-10-05,26.350000381469727,27.0,25.799999237060547,26.149999618530273,26.149999618530273,49770
2016-10-06,26.200000762939453,27.0,24.0,25.0,25.0,115030
2016-10-07,25.649999618530273,27.399999618530273,25.049999237060547,26.200000762939453,26.200000762939453,242141
2016-10-10,26.649999618530273,29.0,26.100000381469727,27.25,27.25,561900
2016-10-13,26.549999237060547,28.450000762939453,26.549999237060547,27.549999237060547,27.549999237060547,175311
2016-10-14,27.600000381469727,30.0,27.600000381469727,28.799999237060547,28.799999237060547,512192
2016-10-17,29.600000381469727,29.75,27.899999618530273,28.149999618530273,28.149999618530273,141974
2016-10-18,28.100000381469727,28.700000762939453,27.5,27.899999618530273,27.899999618530273,66308
2016-10-19,28.299999237060547,28.5,27.600000381469727,27.899999618530273,27.899999618530273,44737
2016-10-20,27.850000381469727,28.899999618530273,27.450000762939453,27.75,27.75,65374
2016-10-21,27.5,28.399999618530273,27.450000762939453,27.600000381469727,27.600000381469727,32594
2016-10-24,27.549999237060547,28.649999618530273,27.450000762939453,27.75,27.75,38289
2016-10-25,27.799999237060547,29.700000762939453,27.649999618530273,29.0,29.0,131026
2016-10-26,29.0,29.299999237060547,28.0,28.149999618530273,28.149999618530273,48606
2016-10-27,28.299999237060547,28.700000762939453,27.799999237060547,28.25,28.25,44380
2016-10-28,28.0,28.5,27.5,28.049999237060547,28.049999237060547,19137
2016-11-01,28.200000762939453,30.399999618530273,28.100000381469727,29.950000762939453,29.950000762939453,261686
2016-11-02,29.5,31.100000381469727,29.100000381469727,30.100000381469727,30.100000381469727,297262
2016-11-03,30.649999618530273,35.400001525878906,29.75,34.20000076293945,34.20000076293945,1023147
2016-11-04,34.25,36.20000076293945,31.850000381469727,32.5,32.5,323969
2016-11-07,33.400001525878906,34.29999923706055,32.04999923706055,32.79999923706055,32.79999923706055,91451
2016-11-08,32.79999923706055,33.900001525878906,32.0,32.849998474121094,32.849998474121094,66920
2016-11-09,30.0,32.04999923706055,27.549999237060547,31.5,31.5,217071
2016-11-10,32.599998474121094,34.150001525878906,30.799999237060547,31.299999237060547,31.299999237060547,69878
2016-11-11,31.5,31.5,29.100000381469727,29.700000762939453,29.700000762939453,97190
2016-11-15,32.25,32.25,28.149999618530273,28.549999237060547,28.549999237060547,60379
2016-11-16,28.350000381469727,29.700000762939453,28.0,28.200000762939453,28.200000762939453,37034
2016-11-17,28.0,28.350000381469727,27.0,27.25,27.25,44950
2016-11-18,28.399999618530273,28.75,26.899999618530273,27.25,27.25,29968
2016-11-21,27.0,27.5,25.5,26.149999618530273,26.149999618530273,72464
2016-11-22,26.5,28.0,26.5,27.75,27.75,34292
2016-11-23,29.399999618530273,29.399999618530273,28.0,29.0,29.0,38665
2016-11-24,28.950000762939453,29.0,28.25,28.950000762939453,28.950000762939453,26052
2016-11-25,28.350000381469727,30.100000381469727,28.350000381469727,29.0,29.0,16380
2016-11-28,30.0,30.0,28.299999237060547,28.950000762939453,28.950000762939453,11721
2016-11-29,29.0,30.899999618530273,29.0,29.899999618530273,29.899999618530273,28342
2016-11-30,31.0,33.099998474121094,30.649999618530273,31.649999618530273,31.649999618530273,151026
2016-12-01,32.0,32.0,29.700000762939453,29.850000381469727,29.850000381469727,54426
2016-12-02,30.450000762939453,30.450000762939453,28.649999618530273,29.149999618530273,29.149999618530273,20714
2016-12-05,29.0,29.75,28.100000381469727,28.600000381469727,28.600000381469727,48454
2016-12-06,28.399999618530273,32.04999923706055,28.399999618530273,29.850000381469727,29.850000381469727,179602
2016-12-07,29.850000381469727,30.5,28.700000762939453,29.25,29.25,25906
2016-12-08,34.0,35.099998474121094,33.599998474121094,35.099998474121094,35.099998474121094,1268103
2016-12-09,37.0,37.0,34.400001525878906,35.25,35.25,889925
2016-12-12,34.20000076293945,35.0,33.5,33.95000076293945,33.95000076293945,223673
2016-12-13,33.04999923706055,35.0,32.150001525878906,32.70000076293945,32.70000076293945,390552
2016-12-14,32.349998474121094,37.099998474121094,32.25,34.75,34.75,883837
2016-12-15,33.599998474121094,37.400001525878906,33.599998474121094,36.29999923706055,36.29999923706055,566725
2016-12-16,36.70000076293945,37.79999923706055,35.099998474121094,35.400001525878906,35.400001525878906,299360
2016-12-19,36.79999923706055,36.79999923706055,35.099998474121094,35.25,35.25,117238
2016-12-20,34.900001525878906,35.849998474121094,33.79999923706055,34.04999923706055,34.04999923706055,123979
2016-12-21,35.0,35.0,33.20000076293945,33.75,33.75,43150
2016-12-22,34.400001525878906,34.5,32.95000076293945,33.150001525878906,33.150001525878906,60987
2016-12-23,33.0,33.650001525878906,32.0,32.900001525878906,32.900001525878906,65887
2016-12-26,32.599998474121094,34.0,32.150001525878906,32.79999923706055,32.79999923706055,100930
2016-12-27,32.849998474121094,33.79999923706055,32.0,32.95000076293945,32.95000076293945,109624
2016-12-28,33.25,34.20000076293945,33.0,33.29999923706055,33.29999923706055,85873
2016-12-29,33.0,34.150001525878906,32.599998474121094,33.79999923706055,33.79999923706055,62392
2016-12-30,33.849998474121094,35.29999923706055,33.79999923706055,34.599998474121094,34.599998474121094,126599
