Date,Open,High,Low,Close,Adj Close,Volume
2023-01-02,15.100000381469727,16.25,15.100000381469727,16.049999237060547,16.049999237060547,28540
2023-01-03,16.100000381469727,16.299999237060547,15.399999618530273,16.149999618530273,16.149999618530273,6449
2023-01-04,15.899999618530273,16.049999237060547,15.600000381469727,15.75,15.75,20873
2023-01-05,15.850000381469727,15.850000381469727,15.600000381469727,15.75,15.75,1985
2023-01-06,15.699999809265137,15.850000381469727,15.5,15.800000190734863,15.800000190734863,1297
2023-01-09,16.0,16.100000381469727,15.399999618530273,15.550000190734863,15.550000190734863,2683
2023-01-10,15.449999809265137,15.5,15.149999618530273,15.25,15.25,6308
2023-01-11,15.5,16.299999237060547,15.399999618530273,15.399999618530273,15.399999618530273,13096
2023-01-12,15.550000190734863,15.699999809265137,15.300000190734863,15.300000190734863,15.300000190734863,657
2023-01-13,15.350000381469727,15.850000381469727,15.100000381469727,15.350000381469727,15.350000381469727,2627
2023-01-16,15.5,15.75,15.199999809265137,15.25,15.25,3772
2023-01-17,15.25,15.649999618530273,15.25,15.449999809265137,15.449999809265137,389
2023-01-18,15.350000381469727,15.550000190734863,15.199999809265137,15.300000190734863,15.300000190734863,2116
2023-01-19,15.199999809265137,15.25,15.050000190734863,15.050000190734863,15.050000190734863,6266
2023-01-20,15.199999809265137,15.350000381469727,15.050000190734863,15.149999618530273,15.149999618530273,1894
2023-01-23,15.199999809265137,15.5,14.199999809265137,15.050000190734863,15.050000190734863,3336
2023-01-24,15.050000190734863,15.100000381469727,14.75,15.0,15.0,1950
2023-01-25,14.899999618530273,15.0,14.699999809265137,14.699999809265137,14.699999809265137,6647
2023-01-27,14.699999809265137,14.699999809265137,14.25,14.350000381469727,14.350000381469727,1664
2023-01-30,14.5,14.600000381469727,14.300000190734863,14.350000381469727,14.350000381469727,2797
2023-01-31,14.199999809265137,14.649999618530273,14.199999809265137,14.350000381469727,14.350000381469727,4443
2023-02-01,14.0,14.449999809265137,14.0,14.050000190734863,14.050000190734863,8755
2023-02-02,14.149999618530273,14.199999809265137,14.050000190734863,14.050000190734863,14.050000190734863,1991
2023-02-03,14.050000190734863,14.390000343322754,13.65999984741211,13.989999771118164,13.989999771118164,3894
2023-02-06,13.600000381469727,13.880000114440918,13.600000381469727,13.6899995803833,13.6899995803833,3770
2023-02-07,13.6899995803833,13.970000267028809,13.279999732971191,13.779999732971191,13.779999732971191,4490
2023-02-08,13.40999984741211,13.970000267028809,13.40999984741211,13.710000038146973,13.710000038146973,6448
2023-02-09,13.899999618530273,14.0,13.579999923706055,13.739999771118164,13.739999771118164,10306
2023-02-10,13.880000114440918,13.920000076293945,13.880000114440918,13.899999618530273,13.899999618530273,1008
2023-02-13,13.710000038146973,14.100000381469727,13.600000381469727,13.6899995803833,13.6899995803833,5842
2023-02-14,13.600000381469727,13.789999961853027,13.369999885559082,13.4399995803833,13.4399995803833,3615
2023-02-15,13.300000190734863,13.369999885559082,13.25,13.300000190734863,13.300000190734863,6794
2023-02-16,13.380000114440918,13.579999923706055,13.329999923706055,13.350000381469727,13.350000381469727,1324
2023-02-17,13.520000457763672,13.600000381469727,13.430000305175781,13.569999694824219,13.569999694824219,1015
2023-02-20,13.479999542236328,13.5,13.25,13.300000190734863,13.300000190734863,660
2023-02-21,13.199999809265137,13.270000457763672,13.199999809265137,13.199999809265137,13.199999809265137,1258
2023-02-22,13.25,13.489999771118164,13.0,13.050000190734863,13.050000190734863,7497
2023-02-23,13.460000038146973,13.460000038146973,13.270000457763672,13.279999732971191,13.279999732971191,854
2023-02-24,13.279999732971191,13.279999732971191,12.609999656677246,13.010000228881836,13.010000228881836,10807
2023-02-27,13.149999618530273,13.170000076293945,11.279999732971191,11.380000114440918,11.380000114440918,22738
2023-02-28,11.420000076293945,11.6899995803833,11.0,11.640000343322754,11.640000343322754,2713
2023-03-01,11.300000190734863,12.479999542236328,11.300000190734863,12.289999961853027,12.289999961853027,4904
2023-03-02,13.0,13.0,12.399999618530273,12.65999984741211,12.65999984741211,4484
2023-03-03,12.59000015258789,12.989999771118164,12.579999923706055,12.600000381469727,12.600000381469727,2930
2023-03-06,12.600000381469727,12.800000190734863,12.600000381469727,12.720000267028809,12.720000267028809,7847
2023-03-08,12.630000114440918,12.890000343322754,12.550000190734863,12.84000015258789,12.84000015258789,588
2023-03-09,12.729999542236328,12.75,12.510000228881836,12.640000343322754,12.640000343322754,3976
2023-03-10,12.399999618530273,12.5,11.5,11.720000267028809,11.720000267028809,8965
2023-03-13,11.720000267028809,11.819999694824219,10.949999809265137,11.180000305175781,11.180000305175781,10077
2023-03-14,11.180000305175781,11.399999618530273,11.180000305175781,11.359999656677246,11.359999656677246,237
2023-03-15,11.520000457763672,11.770000457763672,11.399999618530273,11.520000457763672,11.520000457763672,21329
2023-03-16,11.399999618530273,11.520000457763672,11.119999885559082,11.520000457763672,11.520000457763672,1383
2023-03-17,11.600000381469727,11.670000076293945,11.0,11.5,11.5,13006
2023-03-20,11.199999809265137,11.850000381469727,10.899999618530273,10.960000038146973,10.960000038146973,38654
2023-03-21,11.119999885559082,11.199999809265137,10.970000267028809,11.0,11.0,8538
2023-03-22,11.069999694824219,11.390000343322754,10.800000190734863,10.979999542236328,10.979999542236328,3877
2023-03-23,11.119999885559082,11.380000114440918,11.0,11.010000228881836,11.010000228881836,17998
2023-03-24,10.800000190734863,11.430000305175781,10.75,10.770000457763672,10.770000457763672,9484
2023-03-27,10.5,11.100000381469727,10.420000076293945,10.510000228881836,10.510000228881836,22398
2023-03-28,10.649999618530273,11.09000015258789,10.300000190734863,10.670000076293945,10.670000076293945,9624
2023-03-29,10.430000305175781,10.899999618530273,10.399999618530273,10.75,10.75,13059
2023-03-31,10.75,11.5600004196167,10.300000190734863,11.329999923706055,11.329999923706055,28712
2023-04-03,11.130000114440918,13.34000015258789,11.100000381469727,12.760000228881836,12.760000228881836,8553
2023-04-05,12.050000190734863,13.149999618530273,12.0,12.260000228881836,12.260000228881836,14889
2023-04-06,12.0,12.470000267028809,11.699999809265137,12.199999809265137,12.199999809265137,7046
2023-04-10,11.850000381469727,12.399999618530273,11.699999809265137,11.829999923706055,11.829999923706055,3896
2023-04-11,11.899999618530273,13.210000038146973,11.899999618530273,13.039999961853027,13.039999961853027,14227
2023-04-12,13.420000076293945,13.5,12.720000267028809,12.739999771118164,12.739999771118164,3054
2023-04-13,13.0,13.5,13.0,13.050000190734863,13.050000190734863,1109
2023-04-17,13.050000190734863,13.050000190734863,12.609999656677246,12.729999542236328,12.729999542236328,2477
2023-04-18,12.729999542236328,12.970000267028809,12.609999656677246,12.75,12.75,4359
2023-04-19,12.920000076293945,12.920000076293945,12.449999809265137,12.670000076293945,12.670000076293945,599
2023-04-20,12.699999809265137,12.699999809265137,12.3100004196167,12.5600004196167,12.5600004196167,1875
2023-04-21,12.5600004196167,12.5600004196167,12.100000381469727,12.300000190734863,12.300000190734863,4216
2023-04-24,12.0,12.640000343322754,11.989999771118164,12.319999694824219,12.319999694824219,1495
2023-04-25,12.100000381469727,12.729999542236328,12.100000381469727,12.520000457763672,12.520000457763672,2714
2023-04-26,12.5600004196167,12.619999885559082,12.050000190734863,12.479999542236328,12.479999542236328,4538
2023-04-27,12.529999732971191,12.75,12.449999809265137,12.670000076293945,12.670000076293945,751
2023-04-28,12.75,12.8100004196167,12.300000190734863,12.75,12.75,6334
2023-05-02,12.75,12.930000305175781,12.399999618530273,12.399999618530273,12.399999618530273,2880
2023-05-03,12.449999809265137,12.75,12.399999618530273,12.75,12.75,1251
2023-05-04,12.949999809265137,13.319999694824219,12.90999984741211,12.930000305175781,12.930000305175781,9285
2023-05-05,13.020000457763672,13.1899995803833,12.520000457763672,12.949999809265137,12.949999809265137,5034
2023-05-08,12.40999984741211,14.1899995803833,12.40999984741211,13.880000114440918,13.880000114440918,50783
2023-05-09,13.729999542236328,14.0,13.600000381469727,13.710000038146973,13.710000038146973,1649
2023-05-10,13.5,13.5,13.079999923706055,13.09000015258789,13.09000015258789,4408
2023-05-11,13.279999732971191,13.279999732971191,13.119999885559082,13.149999618530273,13.149999618530273,3074
2023-05-12,13.130000114440918,13.239999771118164,13.109999656677246,13.119999885559082,13.119999885559082,2056
2023-05-15,13.220000267028809,13.84000015258789,13.0,13.260000228881836,13.260000228881836,6781
2023-05-16,13.25,13.609999656677246,13.0600004196167,13.09000015258789,13.09000015258789,12186
2023-05-17,13.1899995803833,13.1899995803833,12.819999694824219,12.970000267028809,12.970000267028809,1312
2023-05-19,12.920000076293945,12.920000076293945,12.729999542236328,12.90999984741211,12.90999984741211,567
2023-05-22,12.90999984741211,12.979999542236328,12.680000305175781,12.920000076293945,12.920000076293945,2072
2023-05-23,12.880000114440918,13.0,12.789999961853027,12.789999961853027,12.789999961853027,1017
2023-05-24,12.479999542236328,13.270000457763672,12.479999542236328,13.069999694824219,13.069999694824219,4725
2023-05-25,13.529999732971191,13.75,13.430000305175781,13.520000457763672,13.520000457763672,1234
2023-05-26,13.670000076293945,13.989999771118164,13.5,13.680000305175781,13.680000305175781,7525
2023-05-30,13.380000114440918,13.479999542236328,13.0600004196167,13.380000114440918,13.380000114440918,3675
2023-05-31,13.079999923706055,13.390000343322754,12.789999961853027,12.949999809265137,12.949999809265137,5733
2023-06-01,13.170000076293945,13.260000228881836,12.75,13.100000381469727,13.100000381469727,5228
2023-06-02,13.079999923706055,13.109999656677246,12.989999771118164,12.989999771118164,12.989999771118164,2006
2023-06-05,12.979999542236328,13.5,12.899999618530273,13.010000228881836,13.010000228881836,3303
2023-06-06,13.079999923706055,13.220000267028809,12.850000381469727,12.979999542236328,12.979999542236328,3411
2023-06-07,12.880000114440918,13.949999809265137,12.859999656677246,13.430000305175781,13.430000305175781,46538
2023-06-08,13.600000381469727,13.600000381469727,12.859999656677246,13.029999732971191,13.029999732971191,13742
2023-06-09,13.399999618530273,13.399999618530273,13.010000228881836,13.210000038146973,13.210000038146973,5837
2023-06-12,12.850000381469727,13.399999618530273,12.850000381469727,13.109999656677246,13.109999656677246,4451
2023-06-13,13.470000267028809,13.529999732971191,13.319999694824219,13.319999694824219,13.319999694824219,513
2023-06-14,13.319999694824219,13.829999923706055,13.0,13.600000381469727,13.600000381469727,18814
2023-06-15,13.899999618530273,13.899999618530273,13.149999618530273,13.199999809265137,13.199999809265137,2261
2023-06-16,13.279999732971191,13.550000190734863,13.100000381469727,13.550000190734863,13.550000190734863,5615
2023-06-19,13.800000190734863,13.800000190734863,13.109999656677246,13.210000038146973,13.210000038146973,7425
2023-06-20,13.180000305175781,13.569999694824219,13.0600004196167,13.279999732971191,13.279999732971191,8154
2023-06-21,13.130000114440918,13.569999694824219,13.130000114440918,13.430000305175781,13.430000305175781,590
2023-06-22,13.430000305175781,13.600000381469727,13.010000228881836,13.279999732971191,13.279999732971191,9548
2023-06-23,13.100000381469727,13.199999809265137,13.050000190734863,13.050000190734863,13.050000190734863,6510
2023-06-26,13.220000267028809,13.270000457763672,13.0,13.180000305175781,13.180000305175781,3729
2023-06-27,13.350000381469727,13.369999885559082,13.0,13.079999923706055,13.079999923706055,1351
2023-06-28,13.100000381469727,13.100000381469727,13.079999923706055,13.079999923706055,13.079999923706055,506
2023-06-30,13.079999923706055,13.399999618530273,13.050000190734863,13.069999694824219,13.069999694824219,4990
2023-07-07,13.270000457763672,13.279999732971191,12.529999732971191,12.920000076293945,12.920000076293945,9294
2023-07-10,12.630000114440918,13.279999732971191,12.609999656677246,12.899999618530273,12.899999618530273,1834
2023-07-14,12.960000038146973,12.960000038146973,12.550000190734863,12.630000114440918,12.630000114440918,2420
2023-07-17,12.9399995803833,12.989999771118164,12.529999732971191,12.699999809265137,12.699999809265137,1656
2023-07-19,12.720000267028809,12.920000076293945,12.600000381469727,12.630000114440918,12.630000114440918,7957
2023-07-20,12.630000114440918,12.670000076293945,12.449999809265137,12.619999885559082,12.619999885559082,5101
2023-07-21,12.5,12.789999961853027,12.479999542236328,12.5,12.5,4165
2023-07-24,12.350000381469727,12.630000114440918,12.319999694824219,12.350000381469727,12.350000381469727,19754
2023-07-26,12.3100004196167,12.600000381469727,12.300000190734863,12.550000190734863,12.550000190734863,9200
2023-07-28,12.199999809265137,12.539999961853027,12.199999809265137,12.350000381469727,12.350000381469727,8297
2023-08-03,12.399999618530273,12.5,12.220000267028809,12.270000457763672,12.270000457763672,5399
2023-08-04,12.100000381469727,12.4399995803833,12.100000381469727,12.300000190734863,12.300000190734863,1195
2023-08-07,12.789999961853027,12.800000190734863,12.119999885559082,12.210000038146973,12.210000038146973,12624
2023-08-08,12.149999618530273,12.550000190734863,12.109999656677246,12.149999618530273,12.149999618530273,4182
2023-08-09,12.449999809265137,12.449999809265137,12.15999984741211,12.210000038146973,12.210000038146973,442
2023-08-10,12.289999961853027,12.550000190734863,12.130000114440918,12.199999809265137,12.199999809265137,15220
2023-08-11,12.199999809265137,13.470000267028809,12.119999885559082,12.850000381469727,12.850000381469727,114127
2023-08-14,12.899999618530273,13.25,12.710000038146973,12.729999542236328,12.729999542236328,6029
2023-08-16,11.149999618530273,13.84000015258789,11.149999618530273,13.430000305175781,13.430000305175781,16035
2023-08-17,13.539999961853027,14.0,12.949999809265137,13.319999694824219,13.319999694824219,46259
2023-08-18,13.319999694824219,13.380000114440918,13.010000228881836,13.010000228881836,13.010000228881836,2701
2023-08-21,13.220000267028809,13.380000114440918,13.050000190734863,13.109999656677246,13.109999656677246,6554
2023-08-22,13.25,13.399999618530273,13.020000457763672,13.0600004196167,13.0600004196167,15662
2023-08-23,13.170000076293945,13.640000343322754,13.119999885559082,13.199999809265137,13.199999809265137,28379
2023-08-24,13.470000267028809,13.529999732971191,13.180000305175781,13.270000457763672,13.270000457763672,6655
2023-08-25,13.279999732971191,13.720000267028809,13.279999732971191,13.399999618530273,13.399999618530273,509
2023-08-28,12.800000190734863,13.420000076293945,12.800000190734863,13.100000381469727,13.100000381469727,11374
2023-08-29,13.329999923706055,13.430000305175781,13.029999732971191,13.0600004196167,13.0600004196167,8736
2023-08-30,13.0600004196167,13.399999618530273,13.0,13.130000114440918,13.130000114440918,6317
2023-08-31,13.130000114440918,13.300000190734863,12.75,12.949999809265137,12.949999809265137,63345
2023-09-01,12.800000190734863,13.149999618530273,12.800000190734863,13.0600004196167,13.0600004196167,13921
2023-09-04,13.149999618530273,13.4399995803833,13.119999885559082,13.260000228881836,13.260000228881836,34613
2023-09-05,13.399999618530273,15.90999984741211,13.399999618530273,15.90999984741211,15.90999984741211,686864
2023-09-06,16.059999465942383,17.329999923706055,15.100000381469727,16.950000762939453,16.950000762939453,370686
2023-09-07,17.0,18.5,16.549999237060547,17.049999237060547,17.049999237060547,281437
2023-09-08,17.700000762939453,17.700000762939453,16.100000381469727,16.309999465942383,16.309999465942383,87682
2023-09-11,16.309999465942383,16.639999389648438,16.0,16.260000228881836,16.260000228881836,29286
2023-09-12,16.020000457763672,16.290000915527344,14.699999809265137,14.9399995803833,14.9399995803833,75831
2023-09-13,15.0,15.649999618530273,14.600000381469727,15.539999961853027,15.539999961853027,7318
2023-09-14,16.75,16.75,15.5,15.600000381469727,15.600000381469727,5189
2023-09-15,15.3100004196167,16.440000534057617,15.3100004196167,16.1299991607666,16.1299991607666,40336
2023-09-18,15.819999694824219,16.299999237060547,15.649999618530273,16.110000610351562,16.110000610351562,7352
2023-09-20,15.109999656677246,15.789999961853027,15.109999656677246,15.270000457763672,15.270000457763672,21156
2023-09-21,15.380000114440918,15.779999732971191,15.149999618530273,15.239999771118164,15.239999771118164,18413
2023-09-22,15.5,15.5,15.0,15.050000190734863,15.050000190734863,5562
2023-09-25,15.199999809265137,15.59000015258789,15.109999656677246,15.489999771118164,15.489999771118164,13159
2023-09-26,15.25,15.4399995803833,15.050000190734863,15.079999923706055,15.079999923706055,32813
2023-09-27,15.079999923706055,15.390000343322754,14.8100004196167,15.0,15.0,3608
2023-09-28,15.15999984741211,15.260000228881836,14.75,14.770000457763672,14.770000457763672,14013
2023-09-29,14.800000190734863,15.029999732971191,14.670000076293945,14.670000076293945,14.670000076293945,7882
2023-10-03,15.0,15.0,14.65999984741211,14.90999984741211,14.90999984741211,3180
2023-10-04,14.760000228881836,15.0,14.760000228881836,14.90999984741211,14.90999984741211,8318
2023-10-05,14.90999984741211,14.90999984741211,14.460000038146973,14.720000267028809,14.720000267028809,4998
2023-10-06,14.9399995803833,15.109999656677246,14.710000038146973,15.050000190734863,15.050000190734863,14248
2023-10-09,15.050000190734863,15.050000190734863,14.600000381469727,14.770000457763672,14.770000457763672,4755
2023-10-10,14.989999771118164,14.989999771118164,14.510000228881836,14.569999694824219,14.569999694824219,10476
2023-10-11,14.859999656677246,16.299999237060547,14.739999771118164,16.229999542236328,16.229999542236328,98806
2023-10-12,16.149999618530273,16.5,15.5,15.829999923706055,15.829999923706055,85458
2023-10-13,15.510000228881836,16.229999542236328,15.510000228881836,15.649999618530273,15.649999618530273,6509
2023-10-16,15.3100004196167,15.989999771118164,15.25,15.380000114440918,15.380000114440918,44336
2023-10-17,15.6899995803833,15.6899995803833,15.15999984741211,15.390000343322754,15.390000343322754,2287
2023-10-18,15.15999984741211,15.5,14.949999809265137,15.1899995803833,15.1899995803833,29321
2023-10-19,14.859999656677246,15.1899995803833,14.859999656677246,14.949999809265137,14.949999809265137,2559
2023-10-20,15.199999809265137,15.350000381469727,14.8100004196167,15.039999961853027,15.039999961853027,12360
2023-10-23,15.119999885559082,15.34000015258789,13.800000190734863,13.869999885559082,13.869999885559082,39366
2023-10-25,13.59000015258789,14.59000015258789,13.59000015258789,14.050000190734863,14.050000190734863,3950
2023-10-26,13.859999656677246,14.140000343322754,13.100000381469727,13.539999961853027,13.539999961853027,96753
2023-10-27,13.739999771118164,14.09000015258789,13.5600004196167,13.770000457763672,13.770000457763672,6077
2023-10-30,13.800000190734863,14.140000343322754,13.609999656677246,13.729999542236328,13.729999542236328,9369
2023-10-31,14.359999656677246,14.359999656677246,13.609999656677246,13.680000305175781,13.680000305175781,199
2023-11-01,13.949999809265137,14.100000381469727,13.710000038146973,13.75,13.75,25903
2023-11-02,14.039999961853027,14.239999771118164,13.869999885559082,14.039999961853027,14.039999961853027,326
2023-11-03,14.140000343322754,14.390000343322754,14.0,14.0,14.0,26944
2023-11-06,14.279999732971191,14.739999771118164,14.069999694824219,14.479999542236328,14.479999542236328,10603
2023-11-07,14.210000038146973,14.739999771118164,14.210000038146973,14.569999694824219,14.569999694824219,6259
2023-11-08,14.880000114440918,15.09000015258789,14.449999809265137,14.770000457763672,14.770000457763672,25278
2023-11-09,14.710000038146973,15.09000015258789,14.5600004196167,14.630000114440918,14.630000114440918,1739
2023-11-10,14.449999809265137,16.0,14.40999984741211,15.640000343322754,15.640000343322754,90618
2023-11-13,15.979999542236328,15.979999542236328,15.239999771118164,15.34000015258789,15.34000015258789,38115
2023-11-15,15.550000190734863,15.789999961853027,15.210000038146973,15.430000305175781,15.430000305175781,5290
2023-11-16,15.140000343322754,15.4399995803833,15.050000190734863,15.220000267028809,15.220000267028809,11815
2023-11-17,15.0,15.640000343322754,14.949999809265137,15.520000457763672,15.520000457763672,13991
2023-11-20,15.75,17.450000762939453,15.449999809265137,16.950000762939453,16.950000762939453,235422
2023-11-21,17.989999771118164,18.049999237060547,17.350000381469727,17.920000076293945,17.920000076293945,228527
2023-11-22,18.149999618530273,18.149999618530273,16.65999984741211,16.860000610351562,16.860000610351562,35073
2023-11-23,16.860000610351562,17.190000534057617,16.5,16.670000076293945,16.670000076293945,48757
2023-11-24,17.0,17.290000915527344,16.829999923706055,17.010000228881836,17.010000228881836,18703
2023-11-28,17.979999542236328,17.979999542236328,16.56999969482422,16.8700008392334,16.8700008392334,41799
2023-11-29,17.18000030517578,17.18000030517578,16.510000228881836,16.600000381469727,16.600000381469727,27505
2023-11-30,16.889999389648438,16.889999389648438,15.850000381469727,15.979999542236328,15.979999542236328,41905
2023-12-01,16.239999771118164,16.5,15.949999809265137,16.200000762939453,16.200000762939453,33032
2023-12-04,16.450000762939453,16.450000762939453,16.100000381469727,16.200000762939453,16.200000762939453,18513
2023-12-05,16.010000228881836,16.260000228881836,15.75,16.030000686645508,16.030000686645508,63008
2023-12-06,16.040000915527344,17.510000228881836,16.040000915527344,17.0,17.0,63621
2023-12-07,17.0,17.600000381469727,16.649999618530273,17.149999618530273,17.149999618530273,56783
2023-12-08,17.489999771118164,17.489999771118164,16.700000762939453,16.709999084472656,16.709999084472656,31657
2023-12-11,17.09000015258789,17.09000015258789,16.440000534057617,16.520000457763672,16.520000457763672,11537
2023-12-12,16.190000534057617,16.940000534057617,16.190000534057617,16.450000762939453,16.450000762939453,10515
2023-12-13,16.1200008392334,16.649999618530273,14.220000267028809,16.43000030517578,16.43000030517578,51311
2023-12-14,16.790000915527344,16.790000915527344,16.18000030517578,16.309999465942383,16.309999465942383,25056
2023-12-15,16.610000610351562,16.75,16.149999618530273,16.25,16.25,5898
2023-12-18,16.59000015258789,19.5,16.049999237060547,18.950000762939453,18.950000762939453,344051
2023-12-19,18.959999084472656,19.81999969482422,18.299999237060547,18.90999984741211,18.90999984741211,292529
2023-12-20,18.90999984741211,19.770000457763672,17.8700008392334,18.3700008392334,18.3700008392334,65416
2023-12-21,18.43000030517578,19.329999923706055,17.899999618530273,18.84000015258789,18.84000015258789,64921
2023-12-22,19.329999923706055,19.5,18.15999984741211,18.389999389648438,18.389999389648438,21707
2023-12-26,18.760000228881836,18.780000686645508,17.729999542236328,18.25,18.25,25390
2023-12-27,18.5,18.6299991607666,17.309999465942383,17.530000686645508,17.530000686645508,36863
2023-12-28,17.799999237060547,17.799999237060547,16.549999237060547,16.690000534057617,16.690000534057617,190549
2023-12-29,16.399999618530273,17.770000457763672,16.399999618530273,17.520000457763672,17.520000457763672,38994
