Date,Open,High,Low,Close,Adj Close,Volume
2012-01-02,7.409999847412109,7.949999809265137,7.409999847412109,7.940000057220459,7.940000057220459,6922
2012-01-03,8.050000190734863,8.1899995803833,7.860000133514404,8.180000305175781,8.180000305175781,2485
2012-01-04,8.300000190734863,8.5,8.260000228881836,8.460000038146973,8.460000038146973,4508
2012-01-05,8.319999694824219,8.739999771118164,8.0,8.550000190734863,8.550000190734863,18657
2012-01-06,8.300000190734863,8.600000381469727,8.260000228881836,8.59000015258789,8.59000015258789,4808
2012-01-09,8.600000381469727,8.75,8.5,8.5600004196167,8.5600004196167,7576
2012-01-10,8.84000015258789,9.449999809265137,8.800000190734863,9.239999771118164,9.239999771118164,16439
2012-01-11,9.300000190734863,10.25,9.300000190734863,9.6899995803833,9.6899995803833,35289
2012-01-12,9.520000457763672,9.739999771118164,9.3100004196167,9.479999542236328,9.479999542236328,12583
2012-01-13,9.420000076293945,11.369999885559082,9.210000038146973,11.270000457763672,11.270000457763672,178094
2012-01-16,11.399999618530273,11.59000015258789,10.3100004196167,10.5,10.5,58248
2012-01-17,10.800000190734863,11.0,10.15999984741211,10.199999809265137,10.199999809265137,32198
2012-01-18,10.199999809265137,10.5,10.100000381469727,10.109999656677246,10.109999656677246,11599
2012-01-19,10.0,10.229999542236328,10.0,10.09000015258789,10.09000015258789,6474
2012-01-20,10.380000114440918,10.380000114440918,9.8100004196167,9.890000343322754,9.890000343322754,3506
2012-01-23,9.699999809265137,9.75,9.5600004196167,9.75,9.75,22602
2012-01-24,9.5,9.779999732971191,9.369999885559082,9.4399995803833,9.4399995803833,14308
2012-01-25,9.600000381469727,9.699999809265137,9.0600004196167,9.510000228881836,9.510000228881836,22373
2012-01-27,9.680000305175781,9.899999618530273,9.359999656677246,9.890000343322754,9.890000343322754,11094
2012-01-30,9.529999732971191,9.9399995803833,9.529999732971191,9.720000267028809,9.720000267028809,12234
2012-01-31,9.600000381469727,9.6899995803833,9.399999618530273,9.420000076293945,9.420000076293945,7916
2012-02-01,9.59000015258789,9.890000343322754,9.5,9.890000343322754,9.890000343322754,16915
2012-02-02,10.369999885559082,10.369999885559082,10.0,10.119999885559082,10.119999885559082,12119
2012-02-03,10.149999618530273,10.149999618530273,9.800000190734863,9.989999771118164,9.989999771118164,24880
2012-02-06,10.479999542236328,10.479999542236328,9.710000038146973,9.859999656677246,9.859999656677246,14127
2012-02-07,9.800000190734863,10.199999809265137,9.800000190734863,9.850000381469727,9.850000381469727,57390
2012-02-08,10.09000015258789,10.100000381469727,9.800000190734863,9.819999694824219,9.819999694824219,9605
2012-02-09,9.720000267028809,10.079999923706055,9.720000267028809,10.050000190734863,10.050000190734863,5740
2012-02-10,10.0,10.100000381469727,9.609999656677246,9.6899995803833,9.6899995803833,61610
2012-02-13,9.800000190734863,9.800000190734863,9.600000381469727,9.710000038146973,9.710000038146973,3399
2012-02-14,10.0,10.100000381469727,9.449999809265137,9.75,9.75,17134
2012-02-15,9.779999732971191,9.979999542236328,9.619999885559082,9.739999771118164,9.739999771118164,16926
2012-02-16,9.65999984741211,9.850000381469727,9.649999618530273,9.729999542236328,9.729999542236328,11990
2012-02-17,9.760000228881836,10.020000457763672,9.760000228881836,9.8100004196167,9.8100004196167,14425
2012-02-21,10.0,10.1899995803833,9.75,9.989999771118164,9.989999771118164,7109
2012-02-22,9.859999656677246,10.09000015258789,9.619999885559082,9.670000076293945,9.670000076293945,6850
2012-02-23,9.699999809265137,9.699999809265137,9.25,9.4399995803833,9.4399995803833,3983
2012-02-24,9.3100004196167,9.3100004196167,8.970000267028809,8.970000267028809,8.970000267028809,26138
2012-02-27,8.899999618530273,8.989999771118164,8.75,8.899999618530273,8.899999618530273,4295
2012-02-28,9.1899995803833,9.1899995803833,8.899999618530273,9.020000457763672,9.020000457763672,2540
2012-02-29,9.199999809265137,9.449999809265137,9.149999618530273,9.25,9.25,5600
2012-03-01,9.239999771118164,9.279999732971191,8.949999809265137,9.149999618530273,9.149999618530273,5625
2012-03-02,9.199999809265137,9.600000381469727,9.050000190734863,9.15999984741211,9.15999984741211,4603
2012-03-03,9.149999618530273,9.149999618530273,9.149999618530273,9.149999618530273,9.149999618530273,25
2012-03-05,8.920000076293945,9.300000190734863,8.920000076293945,9.0600004196167,9.0600004196167,3951
2012-03-06,9.5,9.5,8.899999618530273,8.899999618530273,8.899999618530273,11829
2012-03-07,8.649999618530273,8.800000190734863,8.460000038146973,8.489999771118164,8.489999771118164,18394
2012-03-09,8.399999618530273,8.640000343322754,8.399999618530273,8.520000457763672,8.520000457763672,11220
2012-03-12,8.600000381469727,9.0,8.550000190734863,8.739999771118164,8.739999771118164,21391
2012-03-13,8.569999694824219,8.989999771118164,8.569999694824219,8.930000305175781,8.930000305175781,6335
2012-03-14,8.899999618530273,9.0,8.75,8.84000015258789,8.84000015258789,11305
2012-03-15,9.0,9.020000457763672,8.609999656677246,8.739999771118164,8.739999771118164,11001
2012-03-16,8.550000190734863,9.199999809265137,8.449999809265137,8.489999771118164,8.489999771118164,4955
2012-03-19,9.100000381469727,9.300000190734863,8.600000381469727,8.619999885559082,8.619999885559082,28454
2012-03-20,8.649999618530273,9.149999618530273,8.649999618530273,8.9399995803833,8.9399995803833,12302
2012-03-21,8.949999809265137,9.100000381469727,8.75,8.859999656677246,8.859999656677246,12101
2012-03-22,9.050000190734863,9.100000381469727,8.600000381469727,8.600000381469727,8.600000381469727,4769
2012-03-23,8.539999961853027,8.539999961853027,8.15999984741211,8.180000305175781,8.180000305175781,4550
2012-03-26,8.180000305175781,8.34000015258789,8.109999656677246,8.199999809265137,8.199999809265137,5533
2012-03-27,8.199999809265137,8.489999771118164,8.050000190734863,8.119999885559082,8.119999885559082,5228
2012-03-28,7.900000095367432,8.100000381469727,7.75,7.900000095367432,7.900000095367432,10528
2012-03-29,7.75,7.980000019073486,7.630000114440918,7.849999904632568,7.849999904632568,21494
2012-03-30,8.0,8.25,7.75,7.789999961853027,7.789999961853027,4842
2012-04-02,7.900000095367432,8.229999542236328,7.900000095367432,8.100000381469727,8.100000381469727,6818
2012-04-03,8.0,8.5,8.0,8.25,8.25,6222
2012-04-04,8.199999809265137,8.5,8.140000343322754,8.329999923706055,8.329999923706055,9787
2012-04-09,8.130000114440918,8.260000228881836,8.069999694824219,8.25,8.25,4733
2012-04-10,8.25,8.4399995803833,8.109999656677246,8.34000015258789,8.34000015258789,6973
2012-04-11,8.960000038146973,8.960000038146973,8.050000190734863,8.260000228881836,8.260000228881836,2812
2012-04-12,8.130000114440918,8.350000381469727,8.119999885559082,8.260000228881836,8.260000228881836,1760
2012-04-13,8.199999809265137,8.489999771118164,8.100000381469727,8.279999732971191,8.279999732971191,22903
2012-04-16,8.0,8.199999809265137,7.5,8.140000343322754,8.140000343322754,15076
2012-04-17,8.050000190734863,8.949999809265137,8.050000190734863,8.819999694824219,8.819999694824219,40717
2012-04-18,8.579999923706055,8.989999771118164,8.5,8.569999694824219,8.569999694824219,12436
2012-04-19,8.850000381469727,9.420000076293945,8.850000381469727,9.420000076293945,9.420000076293945,79892
2012-04-20,10.0,10.0,8.649999618530273,8.960000038146973,8.960000038146973,31612
2012-04-23,9.0,9.850000381469727,8.869999885559082,8.970000267028809,8.970000267028809,111850
2012-04-24,9.0,9.0,8.699999809265137,8.8100004196167,8.8100004196167,4350
2012-04-25,8.979999542236328,9.199999809265137,8.760000228881836,8.800000190734863,8.800000190734863,6093
2012-04-26,8.420000076293945,8.550000190734863,8.210000038146973,8.300000190734863,8.300000190734863,9364
2012-04-27,8.260000228881836,8.550000190734863,8.260000228881836,8.489999771118164,8.489999771118164,15566
2012-04-30,8.300000190734863,8.739999771118164,8.300000190734863,8.4399995803833,8.4399995803833,5150
2012-05-02,8.640000343322754,8.880000114440918,8.300000190734863,8.319999694824219,8.319999694824219,9879
2012-05-03,8.15999984741211,8.449999809265137,8.0600004196167,8.199999809265137,8.199999809265137,27057
2012-05-04,8.300000190734863,8.390000343322754,8.0,8.020000457763672,8.020000457763672,18330
2012-05-07,8.0,8.180000305175781,7.909999847412109,8.100000381469727,8.100000381469727,7040
2012-05-08,8.489999771118164,8.489999771118164,7.949999809265137,8.0,8.0,4515
2012-05-09,7.659999847412109,7.980000019073486,7.659999847412109,7.820000171661377,7.820000171661377,1547
2012-05-10,7.610000133514404,8.199999809265137,7.610000133514404,7.75,7.75,5993
2012-05-11,7.900000095367432,7.900000095367432,7.320000171661377,7.809999942779541,7.809999942779541,10049
2012-05-14,7.889999866485596,8.109999656677246,7.510000228881836,7.539999961853027,7.539999961853027,4688
2012-05-15,7.650000095367432,7.849999904632568,7.210000038146973,7.28000020980835,7.28000020980835,5001
2012-05-16,7.400000095367432,7.46999979019165,7.059999942779541,7.46999979019165,7.46999979019165,4172
2012-05-17,7.110000133514404,7.440000057220459,7.110000133514404,7.119999885559082,7.119999885559082,4913
2012-05-18,7.099999904632568,7.239999771118164,7.099999904632568,7.210000038146973,7.210000038146973,10102
2012-05-21,7.159999847412109,7.349999904632568,7.159999847412109,7.269999980926514,7.269999980926514,3021
2012-05-22,7.110000133514404,7.360000133514404,7.110000133514404,7.239999771118164,7.239999771118164,5345
2012-05-23,7.170000076293945,7.170000076293945,7.070000171661377,7.099999904632568,7.099999904632568,4339
2012-05-24,7.900000095367432,7.900000095367432,7.050000190734863,7.150000095367432,7.150000095367432,5276
2012-05-25,7.050000190734863,7.400000095367432,7.050000190734863,7.170000076293945,7.170000076293945,543
2012-05-28,7.179999828338623,7.400000095367432,7.179999828338623,7.199999809265137,7.199999809265137,1079
2012-05-29,7.099999904632568,8.640000343322754,7.099999904632568,8.640000343322754,8.640000343322754,16531
2012-05-30,9.8100004196167,9.899999618530273,7.699999809265137,7.800000190734863,7.800000190734863,47470
2012-05-31,7.550000190734863,8.0,7.550000190734863,7.840000152587891,7.840000152587891,2729
2012-06-01,7.659999847412109,7.900000095367432,7.570000171661377,7.650000095367432,7.650000095367432,3688
2012-06-04,7.800000190734863,7.940000057220459,7.329999923706055,7.820000171661377,7.820000171661377,12176
2012-06-05,8.180000305175781,8.25,7.769999980926514,7.860000133514404,7.860000133514404,4078
2012-06-06,7.760000228881836,8.65999984741211,7.760000228881836,8.399999618530273,8.399999618530273,14338
2012-06-07,9.149999618530273,9.199999809265137,8.550000190734863,8.9399995803833,8.9399995803833,40632
2012-06-08,8.9399995803833,9.09000015258789,8.760000228881836,8.84000015258789,8.84000015258789,14064
2012-06-11,8.510000228881836,8.949999809265137,8.510000228881836,8.710000038146973,8.710000038146973,2844
2012-06-12,8.890000343322754,8.890000343322754,8.300000190734863,8.550000190734863,8.550000190734863,7381
2012-06-13,8.529999732971191,8.649999618530273,8.149999618530273,8.390000343322754,8.390000343322754,7991
2012-06-14,8.5,8.5,8.25,8.359999656677246,8.359999656677246,1972
2012-06-15,8.100000381469727,8.399999618530273,8.100000381469727,8.25,8.25,4746
2012-06-18,8.199999809265137,8.600000381469727,8.15999984741211,8.3100004196167,8.3100004196167,2311
2012-06-19,8.109999656677246,8.399999618530273,8.109999656677246,8.170000076293945,8.170000076293945,750
2012-06-20,8.010000228881836,8.300000190734863,8.0,8.010000228881836,8.010000228881836,4260
2012-06-21,8.0,8.1899995803833,7.949999809265137,8.140000343322754,8.140000343322754,6850
2012-06-22,8.300000190734863,8.350000381469727,8.149999618530273,8.180000305175781,8.180000305175781,2450
2012-06-25,8.100000381469727,8.350000381469727,8.100000381469727,8.229999542236328,8.229999542236328,3546
2012-06-26,8.199999809265137,8.300000190734863,8.109999656677246,8.109999656677246,8.109999656677246,2075
2012-06-27,8.399999618530273,8.5,8.149999618530273,8.199999809265137,8.199999809265137,18038
2012-06-28,8.350000381469727,8.890000343322754,8.25,8.5600004196167,8.5600004196167,12781
2012-06-29,8.899999618530273,8.899999618530273,8.220000267028809,8.619999885559082,8.619999885559082,11983
2012-07-02,8.9399995803833,8.979999542236328,8.680000305175781,8.850000381469727,8.850000381469727,14238
2012-07-03,8.800000190734863,8.989999771118164,8.800000190734863,8.880000114440918,8.880000114440918,7221
2012-07-04,9.100000381469727,9.140000343322754,9.0,9.079999923706055,9.079999923706055,5957
2012-07-05,9.25,9.550000190734863,9.109999656677246,9.420000076293945,9.420000076293945,17534
2012-07-06,9.350000381469727,10.390000343322754,9.350000381469727,9.710000038146973,9.710000038146973,72102
2012-07-09,9.949999809265137,9.949999809265137,9.3100004196167,9.5,9.5,30823
2012-07-10,9.649999618530273,9.649999618530273,9.210000038146973,9.369999885559082,9.369999885559082,6810
2012-07-11,9.399999618530273,10.899999618530273,9.369999885559082,10.539999961853027,10.539999961853027,108506
2012-07-12,10.800000190734863,10.90999984741211,10.050000190734863,10.1899995803833,10.1899995803833,66246
2012-07-13,10.0,10.449999809265137,9.850000381469727,9.850000381469727,9.850000381469727,9137
2012-07-16,9.8100004196167,9.949999809265137,9.260000228881836,9.390000343322754,9.390000343322754,18351
2012-07-17,9.649999618530273,9.649999618530273,9.369999885559082,9.479999542236328,9.479999542236328,7305
2012-07-18,9.220000267028809,9.430000305175781,9.210000038146973,9.369999885559082,9.369999885559082,6163
2012-07-19,9.5,9.569999694824219,9.4399995803833,9.5,9.5,1051
2012-07-20,9.350000381469727,9.579999923706055,9.270000457763672,9.3100004196167,9.3100004196167,4380
2012-07-23,9.260000228881836,9.4399995803833,9.109999656677246,9.350000381469727,9.350000381469727,7463
2012-07-24,9.350000381469727,9.489999771118164,9.130000114440918,9.289999961853027,9.289999961853027,6075
2012-07-25,9.109999656677246,9.149999618530273,9.109999656677246,9.130000114440918,9.130000114440918,1900
2012-07-26,9.399999618530273,9.399999618530273,9.0,9.0,9.0,2923
2012-07-27,8.90999984741211,9.010000228881836,8.699999809265137,8.779999732971191,8.779999732971191,1350
2012-07-30,8.800000190734863,8.800000190734863,8.399999618530273,8.5600004196167,8.5600004196167,3969
2012-07-31,8.869999885559082,8.869999885559082,8.420000076293945,8.489999771118164,8.489999771118164,5600
2012-08-01,8.550000190734863,8.550000190734863,8.270000457763672,8.34000015258789,8.34000015258789,15701
2012-08-02,8.6899995803833,8.899999618530273,8.260000228881836,8.279999732971191,8.279999732971191,5937
2012-08-03,8.550000190734863,8.550000190734863,8.199999809265137,8.3100004196167,8.3100004196167,1881
2012-08-06,8.420000076293945,8.449999809265137,8.3100004196167,8.319999694824219,8.319999694824219,5394
2012-08-07,8.539999961853027,8.600000381469727,8.510000228881836,8.510000228881836,8.510000228881836,8619
2012-08-08,8.6899995803833,8.6899995803833,8.210000038146973,8.350000381469727,8.350000381469727,5093
2012-08-09,8.359999656677246,8.699999809265137,8.229999542236328,8.260000228881836,8.260000228881836,5825
2012-08-10,8.210000038146973,8.399999618530273,8.199999809265137,8.210000038146973,8.210000038146973,1368
2012-08-13,8.210000038146973,8.5,8.210000038146973,8.289999961853027,8.289999961853027,801
2012-08-14,8.579999923706055,8.579999923706055,8.199999809265137,8.199999809265137,8.199999809265137,3663
2012-08-16,8.25,8.4399995803833,8.25,8.260000228881836,8.260000228881836,4303
2012-08-17,8.25,8.4399995803833,8.149999618530273,8.239999771118164,8.239999771118164,6185
2012-08-21,8.109999656677246,8.300000190734863,8.109999656677246,8.149999618530273,8.149999618530273,1252
2012-08-22,8.109999656677246,8.390000343322754,8.100000381469727,8.15999984741211,8.15999984741211,3653
2012-08-23,8.149999618530273,8.800000190734863,8.100000381469727,8.609999656677246,8.609999656677246,9595
2012-08-24,9.0,10.329999923706055,9.0,9.779999732971191,9.779999732971191,61618
2012-08-27,9.979999542236328,9.979999542236328,8.75,8.960000038146973,8.960000038146973,22187
2012-08-28,8.800000190734863,9.399999618530273,8.800000190734863,9.15999984741211,9.15999984741211,27775
2012-08-29,9.050000190734863,9.25,8.869999885559082,9.119999885559082,9.119999885559082,9420
2012-08-30,8.880000114440918,9.1899995803833,8.880000114440918,9.010000228881836,9.010000228881836,6465
2012-08-31,10.800000190734863,10.800000190734863,9.010000228881836,9.390000343322754,9.390000343322754,20301
2012-09-03,9.5,9.699999809265137,9.100000381469727,9.34000015258789,9.34000015258789,15367
2012-09-04,9.5,10.199999809265137,9.5,9.970000267028809,9.970000267028809,93865
2012-09-05,9.899999618530273,11.960000038146973,9.899999618530273,11.960000038146973,11.960000038146973,340116
2012-09-06,12.890000343322754,14.069999694824219,12.390000343322754,13.65999984741211,13.65999984741211,887933
2012-09-07,13.989999771118164,14.1899995803833,12.520000457763672,12.680000305175781,12.680000305175781,292465
2012-09-08,12.239999771118164,13.100000381469727,12.239999771118164,12.869999885559082,12.869999885559082,31860
2012-09-10,12.899999618530273,12.899999618530273,12.5,12.649999618530273,12.649999618530273,35778
2012-09-11,12.25,12.789999961853027,12.0,12.0600004196167,12.0600004196167,35505
2012-09-12,12.050000190734863,12.050000190734863,11.260000228881836,11.460000038146973,11.460000038146973,53489
2012-09-13,11.649999618530273,11.649999618530273,10.449999809265137,10.779999732971191,10.779999732971191,45929
2012-09-14,10.699999809265137,11.600000381469727,10.550000190734863,11.239999771118164,11.239999771118164,41677
2012-09-17,11.199999809265137,11.300000190734863,10.75,11.109999656677246,11.109999656677246,29940
2012-09-18,11.680000305175781,11.680000305175781,10.899999618530273,11.0,11.0,4971
2012-09-20,11.0,12.100000381469727,11.0,12.100000381469727,12.100000381469727,31075
2012-09-21,13.25,13.3100004196167,12.449999809265137,12.770000457763672,12.770000457763672,168810
2012-09-24,12.600000381469727,12.600000381469727,12.010000228881836,12.300000190734863,12.300000190734863,28635
2012-09-25,12.100000381469727,12.300000190734863,11.800000190734863,11.949999809265137,11.949999809265137,27480
2012-09-26,12.0,12.300000190734863,11.819999694824219,12.220000267028809,12.220000267028809,38045
2012-09-27,12.199999809265137,12.380000114440918,12.100000381469727,12.270000457763672,12.270000457763672,18754
2012-09-28,12.5,12.5,11.949999809265137,12.239999771118164,12.239999771118164,18745
2012-10-01,12.25,12.800000190734863,11.850000381469727,12.569999694824219,12.569999694824219,23544
2012-10-03,12.609999656677246,13.399999618530273,12.609999656677246,12.930000305175781,12.930000305175781,158278
2012-10-04,12.649999618530273,14.220000267028809,12.619999885559082,14.130000114440918,14.130000114440918,855575
2012-10-05,14.5,14.600000381469727,12.979999542236328,13.369999885559082,13.369999885559082,82091
2012-10-08,13.15999984741211,14.300000190734863,13.15999984741211,13.880000114440918,13.880000114440918,144343
2012-10-09,13.800000190734863,14.199999809265137,13.65999984741211,14.130000114440918,14.130000114440918,47730
2012-10-10,13.800000190734863,14.050000190734863,13.369999885559082,13.75,13.75,27206
2012-10-11,13.949999809265137,13.989999771118164,13.449999809265137,13.520000457763672,13.520000457763672,20829
2012-10-12,13.600000381469727,14.0,13.350000381469727,13.520000457763672,13.520000457763672,35845
2012-10-15,13.739999771118164,14.5,13.25,14.180000305175781,14.180000305175781,63130
2012-10-16,14.5,15.539999961853027,14.350000381469727,14.9399995803833,14.9399995803833,551231
2012-10-17,15.350000381469727,16.299999237060547,14.800000190734863,15.859999656677246,15.859999656677246,534025
2012-10-18,15.899999618530273,16.5,14.279999732971191,14.3100004196167,14.3100004196167,391691
2012-10-19,14.0,14.699999809265137,13.25,13.399999618530273,13.399999618530273,162552
2012-10-22,13.5,14.039999961853027,13.199999809265137,13.9399995803833,13.9399995803833,45690
2012-10-23,14.300000190734863,14.3100004196167,13.199999809265137,13.460000038146973,13.460000038146973,38996
2012-10-25,13.739999771118164,13.75,13.069999694824219,13.109999656677246,13.109999656677246,14787
2012-10-29,12.5600004196167,12.949999809265137,12.270000457763672,12.430000305175781,12.430000305175781,9791
2012-10-30,12.800000190734863,12.800000190734863,12.0,12.069999694824219,12.069999694824219,9599
2012-10-31,11.850000381469727,12.75,11.850000381469727,12.5600004196167,12.5600004196167,11118
2012-11-01,12.449999809265137,12.550000190734863,12.100000381469727,12.199999809265137,12.199999809265137,13515
2012-11-02,12.369999885559082,12.369999885559082,11.75,11.930000305175781,11.930000305175781,26364
2012-11-05,12.0,12.25,11.25,11.789999961853027,11.789999961853027,24825
2012-11-06,11.539999961853027,12.100000381469727,11.539999961853027,11.989999771118164,11.989999771118164,17445
2012-11-07,12.050000190734863,12.979999542236328,12.050000190734863,12.59000015258789,12.59000015258789,29318
2012-11-08,13.0,13.4399995803833,12.350000381469727,13.119999885559082,13.119999885559082,30258
2012-11-09,12.699999809265137,13.59000015258789,12.5600004196167,12.65999984741211,12.65999984741211,25967
2012-11-12,12.600000381469727,12.699999809265137,12.15999984741211,12.239999771118164,12.239999771118164,9481
2012-11-15,12.0,13.079999923706055,12.0,12.859999656677246,12.859999656677246,34777
2012-11-16,12.8100004196167,12.850000381469727,12.100000381469727,12.300000190734863,12.300000190734863,16121
2012-11-19,12.300000190734863,12.5,12.020000457763672,12.109999656677246,12.109999656677246,70542
2012-11-20,12.399999618530273,12.75,12.100000381469727,12.130000114440918,12.130000114440918,45833
2012-11-21,12.300000190734863,12.899999618530273,12.289999961853027,12.699999809265137,12.699999809265137,15754
2012-11-22,13.100000381469727,15.239999771118164,12.850000381469727,15.130000114440918,15.130000114440918,611352
2012-11-23,15.449999809265137,16.450000762939453,13.899999618530273,15.09000015258789,15.09000015258789,519605
2012-11-26,15.0,16.450000762939453,14.949999809265137,16.280000686645508,16.280000686645508,346116
2012-11-27,16.200000762939453,16.200000762939453,14.600000381469727,14.960000038146973,14.960000038146973,101965
2012-11-29,15.140000343322754,15.699999809265137,15.0,15.0,15.0,79107
2012-11-30,14.899999618530273,14.899999618530273,14.300000190734863,14.369999885559082,14.369999885559082,44294
2012-12-03,14.449999809265137,14.789999961853027,14.210000038146973,14.239999771118164,14.239999771118164,21727
2012-12-04,15.0,17.079999923706055,14.579999923706055,15.979999542236328,15.979999542236328,651766
2012-12-05,16.799999237060547,16.799999237060547,15.770000457763672,16.43000030517578,16.43000030517578,128286
2012-12-06,16.799999237060547,16.850000381469727,15.699999809265137,16.639999389648438,16.639999389648438,109182
2012-12-07,16.93000030517578,17.100000381469727,15.649999618530273,15.739999771118164,15.739999771118164,112016
2012-12-10,15.0,16.440000534057617,15.0,15.789999961853027,15.789999961853027,51288
2012-12-11,16.0,16.399999618530273,15.600000381469727,15.699999809265137,15.699999809265137,50747
2012-12-12,15.949999809265137,15.989999771118164,15.220000267028809,15.289999961853027,15.289999961853027,17004
2012-12-13,15.050000190734863,16.0,14.819999694824219,14.880000114440918,14.880000114440918,22488
2012-12-14,15.0,17.299999237060547,14.75,15.670000076293945,15.670000076293945,484442
2012-12-17,15.600000381469727,15.710000038146973,14.609999656677246,14.649999618530273,14.649999618530273,88029
2012-12-18,14.699999809265137,14.9399995803833,14.550000190734863,14.729999542236328,14.729999542236328,21749
2012-12-19,15.050000190734863,15.199999809265137,14.649999618530273,14.760000228881836,14.760000228881836,21048
2012-12-20,14.100000381469727,15.199999809265137,14.100000381469727,14.350000381469727,14.350000381469727,13664
2012-12-21,14.270000457763672,14.300000190734863,13.850000381469727,13.970000267028809,13.970000267028809,18645
2012-12-24,14.0,14.199999809265137,13.800000190734863,13.84000015258789,13.84000015258789,11695
2012-12-26,13.75,14.600000381469727,13.75,14.4399995803833,14.4399995803833,41150
2012-12-27,14.75,14.75,13.989999771118164,14.010000228881836,14.010000228881836,18288
2012-12-28,14.050000190734863,14.199999809265137,13.600000381469727,13.720000267028809,13.720000267028809,11156
