Date,Open,High,Low,Close,Adj Close,Volume
2008-01-02,44.0,45.0,41.0,42.25,42.25,303247
2008-01-03,40.099998474121094,43.70000076293945,40.099998474121094,41.45000076293945,41.45000076293945,257382
2008-01-04,42.400001525878906,42.95000076293945,40.95000076293945,41.25,41.25,184681
2008-01-07,40.150001525878906,47.5,40.099998474121094,46.5,46.5,1661114
2008-01-08,48.0,48.400001525878906,40.900001525878906,41.599998474121094,41.599998474121094,1161067
2008-01-09,41.099998474121094,45.95000076293945,40.5,42.54999923706055,42.54999923706055,890529
2008-01-10,42.95000076293945,45.79999923706055,40.0,40.5,40.5,642719
2008-01-11,41.45000076293945,41.900001525878906,39.20000076293945,39.849998474121094,39.849998474121094,169479
2008-01-14,40.0,41.650001525878906,38.0,40.04999923706055,40.04999923706055,129758
2008-01-15,40.79999923706055,42.0,38.79999923706055,39.20000076293945,39.20000076293945,211735
2008-01-16,38.54999923706055,39.20000076293945,37.099998474121094,37.45000076293945,37.45000076293945,141628
2008-01-17,38.29999923706055,39.400001525878906,36.650001525878906,38.0,38.0,110629
2008-01-18,37.150001525878906,38.29999923706055,35.25,35.75,35.75,101453
2008-01-21,35.04999923706055,35.400001525878906,28.649999618530273,29.049999237060547,29.049999237060547,154300
2008-01-22,29.0,29.0,23.25,25.700000762939453,25.700000762939453,99524
2008-01-23,27.549999237060547,29.950000762939453,25.049999237060547,28.850000381469727,28.850000381469727,84205
2008-01-24,30.0,31.899999618530273,26.0,26.649999618530273,26.649999618530273,139814
2008-01-25,29.0,29.5,27.0,29.200000762939453,29.200000762939453,46137
2008-01-28,27.5,30.049999237060547,27.5,29.549999237060547,29.549999237060547,41373
2008-01-29,29.649999618530273,30.0,28.049999237060547,28.549999237060547,28.549999237060547,63238
2008-01-30,28.700000762939453,28.899999618530273,26.850000381469727,27.350000381469727,27.350000381469727,31715
2008-01-31,27.100000381469727,27.75,26.049999237060547,26.899999618530273,26.899999618530273,27016
2008-02-01,27.5,27.700000762939453,26.100000381469727,27.399999618530273,27.399999618530273,34319
2008-02-04,27.75,28.649999618530273,27.700000762939453,28.200000762939453,28.200000762939453,31986
2008-02-05,28.899999618530273,29.450000762939453,28.0,28.799999237060547,28.799999237060547,28329
2008-02-06,28.0,29.0,27.149999618530273,27.899999618530273,27.899999618530273,91122
2008-02-07,27.149999618530273,29.899999618530273,27.100000381469727,27.799999237060547,27.799999237060547,113018
2008-02-08,28.350000381469727,28.350000381469727,26.799999237060547,27.399999618530273,27.399999618530273,39170
2008-02-11,27.100000381469727,27.75,25.899999618530273,26.100000381469727,26.100000381469727,41269
2008-02-12,25.700000762939453,26.350000381469727,25.399999618530273,25.600000381469727,25.600000381469727,25175
2008-02-13,25.350000381469727,26.0,25.0,25.149999618530273,25.149999618530273,15551
2008-02-14,25.5,26.799999237060547,25.5,26.149999618530273,26.149999618530273,36084
2008-02-15,26.0,31.350000381469727,25.5,31.350000381469727,31.350000381469727,107775
2008-02-18,32.5,37.599998474121094,32.5,36.95000076293945,36.95000076293945,796329
2008-02-19,38.400001525878906,40.20000076293945,35.75,37.0,37.0,594123
2008-02-20,35.29999923706055,37.400001525878906,34.150001525878906,34.599998474121094,34.599998474121094,135602
2008-02-21,34.5,36.25,34.099998474121094,34.5,34.5,70255
2008-02-22,34.04999923706055,34.04999923706055,32.849998474121094,33.04999923706055,33.04999923706055,28354
2008-02-25,33.0,33.0,31.799999237060547,32.25,32.25,35394
2008-02-26,33.5,33.5,31.149999618530273,31.75,31.75,55584
2008-02-27,32.099998474121094,33.79999923706055,31.649999618530273,32.04999923706055,32.04999923706055,86385
2008-02-28,32.849998474121094,32.900001525878906,31.0,31.700000762939453,31.700000762939453,48256
2008-02-29,30.5,34.0,30.5,32.650001525878906,32.650001525878906,96272
2008-03-03,30.049999237060547,33.0,30.049999237060547,30.850000381469727,30.850000381469727,27697
2008-03-04,30.149999618530273,32.0,28.299999237060547,29.149999618530273,29.149999618530273,67579
2008-03-05,29.049999237060547,29.75,28.350000381469727,28.649999618530273,28.649999618530273,38378
2008-03-07,28.0,28.149999618530273,26.25,26.450000762939453,26.450000762939453,74676
2008-03-10,24.600000381469727,28.75,24.600000381469727,28.0,28.0,55184
2008-03-11,28.0,29.700000762939453,27.850000381469727,29.0,29.0,55083
2008-03-12,30.950000762939453,32.5,28.549999237060547,28.549999237060547,28.549999237060547,68156
2008-03-13,26.0,28.5,26.0,27.450000762939453,27.450000762939453,61193
2008-03-14,28.200000762939453,28.350000381469727,26.899999618530273,27.799999237060547,27.799999237060547,20658
2008-03-17,26.149999618530273,27.549999237060547,26.0,27.100000381469727,27.100000381469727,41261
2008-03-18,26.450000762939453,27.899999618530273,26.399999618530273,26.950000762939453,26.950000762939453,27431
2008-03-19,27.25,28.200000762939453,26.100000381469727,27.0,27.0,48879
2008-03-24,26.549999237060547,27.200000762939453,25.25,26.450000762939453,26.450000762939453,52773
2008-03-25,27.049999237060547,28.100000381469727,26.049999237060547,27.549999237060547,27.549999237060547,57583
2008-03-26,27.25,28.5,27.049999237060547,28.25,28.25,22706
2008-03-27,27.100000381469727,28.700000762939453,27.100000381469727,28.25,28.25,25932
2008-03-28,28.299999237060547,30.5,28.0,29.700000762939453,29.700000762939453,54154
2008-03-31,30.25,31.0,28.899999618530273,29.799999237060547,29.799999237060547,66091
2008-04-01,30.5,30.5,29.5,29.649999618530273,29.649999618530273,14131
2008-04-02,30.5,30.600000381469727,29.5,29.700000762939453,29.700000762939453,23124
2008-04-03,29.5,33.5,29.5,32.349998474121094,32.349998474121094,43730
2008-04-04,31.75,32.29999923706055,30.5,30.700000762939453,30.700000762939453,35751
2008-04-07,31.399999618530273,31.899999618530273,30.350000381469727,31.649999618530273,31.649999618530273,66853
2008-04-08,31.600000381469727,31.950000762939453,30.549999237060547,31.75,31.75,22285
2008-04-09,31.049999237060547,32.25,31.049999237060547,31.950000762939453,31.950000762939453,35929
2008-04-10,32.5,34.04999923706055,32.099998474121094,32.75,32.75,96348
2008-04-11,34.0,34.650001525878906,33.0,34.150001525878906,34.150001525878906,87604
2008-04-15,33.0,34.54999923706055,33.0,34.099998474121094,34.099998474121094,61420
2008-04-16,34.900001525878906,36.349998474121094,34.150001525878906,35.54999923706055,35.54999923706055,56870
2008-04-17,37.75,38.04999923706055,35.0,35.95000076293945,35.95000076293945,85974
2008-04-21,37.0,37.5,35.650001525878906,35.900001525878906,35.900001525878906,62191
2008-04-22,35.349998474121094,36.70000076293945,35.349998474121094,36.0,36.0,44326
2008-04-23,36.5,36.5,33.54999923706055,36.0,36.0,146245
2008-04-24,37.0,37.599998474121094,35.599998474121094,36.20000076293945,36.20000076293945,48582
2008-04-25,35.25,41.599998474121094,35.25,40.54999923706055,40.54999923706055,512572
2008-04-28,41.29999923706055,47.20000076293945,39.0,45.95000076293945,45.95000076293945,1411123
2008-04-29,47.0,47.0,41.5,42.25,42.25,504932
2008-04-30,42.79999923706055,42.79999923706055,39.099998474121094,39.599998474121094,39.599998474121094,250454
2008-05-02,40.0,40.25,37.5,38.900001525878906,38.900001525878906,84379
2008-05-05,38.599998474121094,42.70000076293945,37.650001525878906,39.900001525878906,39.900001525878906,164499
2008-05-06,40.150001525878906,40.95000076293945,39.04999923706055,39.20000076293945,39.20000076293945,63097
2008-05-07,38.650001525878906,39.599998474121094,38.650001525878906,39.099998474121094,39.099998474121094,70599
2008-05-08,38.5,39.0,38.0,38.20000076293945,38.20000076293945,53755
2008-05-09,38.04999923706055,38.5,37.0,37.04999923706055,37.04999923706055,27898
2008-05-12,37.400001525878906,37.400001525878906,35.900001525878906,36.349998474121094,36.349998474121094,38447
2008-05-13,36.0,38.95000076293945,36.0,36.599998474121094,36.599998474121094,69269
2008-05-14,36.45000076293945,37.20000076293945,36.20000076293945,36.650001525878906,36.650001525878906,8557
2008-05-15,37.0,37.70000076293945,36.79999923706055,36.95000076293945,36.95000076293945,15880
2008-05-16,37.45000076293945,38.20000076293945,37.150001525878906,37.400001525878906,37.400001525878906,32571
2008-05-20,38.20000076293945,38.75,37.099998474121094,37.849998474121094,37.849998474121094,44754
2008-05-21,36.5,40.5,36.5,39.25,39.25,69526
2008-05-22,39.75,40.5,38.0,38.150001525878906,38.150001525878906,65156
2008-05-23,38.25,40.29999923706055,37.75,37.900001525878906,37.900001525878906,72126
2008-05-26,37.0,38.650001525878906,36.54999923706055,37.099998474121094,37.099998474121094,49351
2008-05-27,36.400001525878906,37.900001525878906,36.400001525878906,37.5,37.5,28229
2008-05-28,37.650001525878906,37.849998474121094,36.599998474121094,37.04999923706055,37.04999923706055,32776
2008-05-29,37.099998474121094,38.150001525878906,37.0,37.0,37.0,21834
2008-05-30,37.0,39.75,37.0,37.79999923706055,37.79999923706055,99956
2008-06-02,38.099998474121094,38.400001525878906,35.29999923706055,35.650001525878906,35.650001525878906,52838
2008-06-03,35.900001525878906,35.900001525878906,34.0,35.45000076293945,35.45000076293945,23413
2008-06-04,35.0,35.75,33.25,34.099998474121094,34.099998474121094,23878
2008-06-05,34.099998474121094,34.099998474121094,32.54999923706055,33.0,33.0,17812
2008-06-06,33.349998474121094,34.150001525878906,31.75,32.20000076293945,32.20000076293945,13496
2008-06-09,31.5,32.25,30.0,32.0,32.0,32568
2008-06-10,32.0,32.75,31.600000381469727,31.75,31.75,4200
2008-06-11,32.5,33.45000076293945,32.0,32.25,32.25,36692
2008-06-12,31.700000762939453,33.25,31.649999618530273,32.29999923706055,32.29999923706055,16727
2008-06-13,31.549999237060547,32.349998474121094,31.549999237060547,31.899999618530273,31.899999618530273,8137
2008-06-16,32.04999923706055,35.5,32.04999923706055,32.95000076293945,32.95000076293945,48828
2008-06-17,33.75,33.75,32.04999923706055,33.400001525878906,33.400001525878906,13594
2008-06-18,32.599998474121094,33.5,32.400001525878906,32.650001525878906,32.650001525878906,10566
2008-06-19,33.0,33.5,32.0,32.650001525878906,32.650001525878906,7005
2008-06-20,32.400001525878906,32.400001525878906,30.100000381469727,31.049999237060547,31.049999237060547,5583
2008-06-23,30.299999237060547,30.600000381469727,29.0,29.75,29.75,9518
2008-06-24,28.149999618530273,30.5,28.149999618530273,30.0,30.0,20243
2008-06-25,30.0,33.04999923706055,30.0,31.299999237060547,31.299999237060547,30136
2008-06-26,30.950000762939453,31.700000762939453,29.899999618530273,30.25,30.25,26852
2008-06-27,29.0,30.5,27.649999618530273,29.100000381469727,29.100000381469727,38958
2008-06-30,29.100000381469727,29.899999618530273,27.549999237060547,27.899999618530273,27.899999618530273,12939
2008-07-01,27.649999618530273,27.649999618530273,25.75,26.299999237060547,26.299999237060547,18219
2008-07-02,25.0,26.950000762939453,24.100000381469727,26.600000381469727,26.600000381469727,25321
2008-07-03,26.75,27.0,25.0,25.950000762939453,25.950000762939453,16724
2008-07-04,26.0,27.5,26.0,27.149999618530273,27.149999618530273,11616
2008-07-07,28.0,28.399999618530273,27.299999237060547,28.0,28.0,13850
2008-07-08,27.5,28.200000762939453,27.149999618530273,28.200000762939453,28.200000762939453,3216
2008-07-09,28.899999618530273,29.25,28.5,28.850000381469727,28.850000381469727,27882
2008-07-10,28.5,30.0,28.25,29.25,29.25,12257
2008-07-11,27.200000762939453,30.899999618530273,27.200000762939453,28.649999618530273,28.649999618530273,17078
2008-07-14,28.299999237060547,28.5,27.850000381469727,28.350000381469727,28.350000381469727,11559
2008-07-15,27.5,28.399999618530273,26.5,26.649999618530273,26.649999618530273,17293
2008-07-16,26.850000381469727,27.5,26.799999237060547,27.0,27.0,7506
2008-07-17,27.25,29.899999618530273,27.25,28.549999237060547,28.549999237060547,11777
2008-07-18,27.299999237060547,31.200000762939453,27.25,29.600000381469727,29.600000381469727,26630
2008-07-21,28.5,29.5,28.399999618530273,28.850000381469727,28.850000381469727,8004
2008-07-22,28.5,29.0,28.25,28.399999618530273,28.399999618530273,7411
2008-07-23,29.899999618530273,29.899999618530273,28.200000762939453,28.799999237060547,28.799999237060547,20601
2008-07-24,30.350000381469727,30.350000381469727,28.5,28.899999618530273,28.899999618530273,20704
2008-07-25,28.75,29.100000381469727,28.450000762939453,28.649999618530273,28.649999618530273,6415
2008-07-28,28.899999618530273,29.0,28.25,28.700000762939453,28.700000762939453,15857
2008-07-29,29.700000762939453,29.700000762939453,28.5,28.700000762939453,28.700000762939453,7104
2008-07-30,28.299999237060547,29.5,28.299999237060547,28.75,28.75,4679
2008-07-31,28.549999237060547,28.75,28.25,28.399999618530273,28.399999618530273,3593
2008-08-01,28.0,28.5,27.850000381469727,28.149999618530273,28.149999618530273,7740
2008-08-04,27.5,30.049999237060547,27.5,29.350000381469727,29.350000381469727,14310
2008-08-05,30.0,30.350000381469727,29.100000381469727,29.799999237060547,29.799999237060547,13988
2008-08-06,30.899999618530273,30.899999618530273,29.549999237060547,29.700000762939453,29.700000762939453,24457
2008-08-07,29.899999618530273,29.899999618530273,29.399999618530273,29.700000762939453,29.700000762939453,5352
2008-08-08,29.149999618530273,29.75,29.149999618530273,29.5,29.5,18736
2008-08-11,30.5,31.399999618530273,30.0,30.700000762939453,30.700000762939453,42964
2008-08-12,30.5,30.700000762939453,30.0,30.049999237060547,30.049999237060547,10326
2008-08-13,30.0,30.700000762939453,30.0,30.100000381469727,30.100000381469727,19424
2008-08-14,30.450000762939453,30.5,29.049999237060547,29.450000762939453,29.450000762939453,13859
2008-08-18,29.049999237060547,29.799999237060547,29.049999237060547,29.450000762939453,29.450000762939453,13711
2008-08-19,29.399999618530273,29.399999618530273,28.299999237060547,28.649999618530273,28.649999618530273,12971
2008-08-20,28.549999237060547,29.0,28.549999237060547,28.950000762939453,28.950000762939453,2858
2008-08-21,29.0,29.0,28.049999237060547,28.149999618530273,28.149999618530273,8073
2008-08-22,28.549999237060547,28.649999618530273,28.049999237060547,28.200000762939453,28.200000762939453,5383
2008-08-25,29.399999618530273,30.399999618530273,28.399999618530273,28.549999237060547,28.549999237060547,9150
2008-08-26,29.5,29.649999618530273,28.0,28.350000381469727,28.350000381469727,5205
2008-08-27,28.549999237060547,28.950000762939453,28.0,28.5,28.5,9654
2008-08-28,29.399999618530273,30.0,28.0,28.200000762939453,28.200000762939453,3627
2008-08-29,28.549999237060547,28.75,28.149999618530273,28.299999237060547,28.299999237060547,10096
2008-09-01,28.299999237060547,28.600000381469727,28.200000762939453,28.600000381469727,28.600000381469727,4588
2008-09-02,28.700000762939453,28.700000762939453,28.25,28.299999237060547,28.299999237060547,3973
2008-09-04,28.5,29.0,27.5,27.899999618530273,27.899999618530273,12359
2008-09-05,28.0,28.100000381469727,27.649999618530273,27.75,27.75,7696
2008-09-08,27.600000381469727,29.0,27.600000381469727,27.899999618530273,27.899999618530273,18196
2008-09-09,28.0,28.350000381469727,27.649999618530273,27.950000762939453,27.950000762939453,3567
2008-09-10,26.600000381469727,28.5,26.600000381469727,28.149999618530273,28.149999618530273,3582
2008-09-11,27.899999618530273,28.100000381469727,27.5,27.700000762939453,27.700000762939453,3226
2008-09-12,28.0,28.0,27.0,27.450000762939453,27.450000762939453,5840
2008-09-15,27.25,27.25,26.100000381469727,26.600000381469727,26.600000381469727,12478
2008-09-16,26.799999237060547,26.799999237060547,25.75,26.149999618530273,26.149999618530273,7887
2008-09-17,26.5,26.799999237060547,26.0,26.600000381469727,26.600000381469727,4878
2008-09-18,24.549999237060547,25.850000381469727,24.549999237060547,25.399999618530273,25.399999618530273,22664
2008-09-19,26.299999237060547,26.299999237060547,25.399999618530273,25.5,25.5,11009
2008-09-22,26.0,26.299999237060547,25.549999237060547,25.600000381469727,25.600000381469727,6150
2008-09-23,25.0,26.0,25.0,25.75,25.75,2361
2008-09-24,25.799999237060547,25.799999237060547,25.049999237060547,25.700000762939453,25.700000762939453,2535
2008-09-25,26.0,26.0,24.850000381469727,25.700000762939453,25.700000762939453,4646
2008-09-26,26.5,26.5,24.799999237060547,24.899999618530273,24.899999618530273,8388
2008-09-29,24.5,25.0,22.600000381469727,23.0,23.0,9571
2008-09-30,21.100000381469727,24.899999618530273,21.100000381469727,22.75,22.75,6575
2008-10-01,23.0,23.0,22.100000381469727,22.799999237060547,22.799999237060547,775
2008-10-03,22.149999618530273,23.0,22.0,22.149999618530273,22.149999618530273,3345
2008-10-06,20.5,23.0,20.5,21.350000381469727,21.350000381469727,11198
2008-10-07,19.75,22.0,19.100000381469727,20.149999618530273,20.149999618530273,66760
2008-10-08,18.0,19.25,17.100000381469727,17.350000381469727,17.350000381469727,38560
2008-10-10,17.850000381469727,17.850000381469727,15.5,16.0,16.0,19187
2008-10-13,16.0,18.5,16.0,18.200000762939453,18.200000762939453,11343
2008-10-14,20.0,20.0,17.600000381469727,17.700000762939453,17.700000762939453,9150
2008-10-15,17.200000762939453,18.049999237060547,16.75,16.799999237060547,16.799999237060547,5942
2008-10-16,17.399999618530273,20.100000381469727,15.550000190734863,16.850000381469727,16.850000381469727,17735
2008-10-17,17.0,17.0,16.399999618530273,16.5,16.5,3639
2008-10-20,14.600000381469727,17.5,14.600000381469727,16.149999618530273,16.149999618530273,22167
2008-10-21,16.5,16.950000762939453,16.149999618530273,16.5,16.5,8868
2008-10-22,16.649999618530273,16.649999618530273,15.5,15.649999618530273,15.649999618530273,21838
2008-10-23,16.600000381469727,16.600000381469727,14.399999618530273,15.649999618530273,15.649999618530273,5952
2008-10-24,16.0,16.0,13.0,14.399999618530273,14.399999618530273,25505
2008-10-27,15.399999618530273,15.399999618530273,12.0,12.899999618530273,12.899999618530273,9353
2008-10-29,14.149999618530273,16.0,11.399999618530273,14.449999809265137,14.449999809265137,7698
2008-10-31,15.899999618530273,15.899999618530273,14.5,15.0,15.0,24830
2008-11-03,15.0,16.299999237060547,15.0,15.630000114440918,15.630000114440918,6669
2008-11-04,15.100000381469727,17.799999237060547,15.100000381469727,17.239999771118164,17.239999771118164,28292
2008-11-05,17.049999237060547,18.0,16.0,16.1200008392334,16.1200008392334,9411
2008-11-06,13.25,15.449999809265137,13.25,15.039999961853027,15.039999961853027,5394
2008-11-07,12.149999618530273,18.0,12.149999618530273,15.170000076293945,15.170000076293945,8809
2008-11-10,14.300000190734863,15.699999809265137,14.25,15.079999923706055,15.079999923706055,8428
2008-11-11,14.5,16.0,13.5,14.970000267028809,14.970000267028809,1807
2008-11-12,14.300000190734863,15.5,13.210000038146973,13.9399995803833,13.9399995803833,14178
2008-11-14,13.949999809265137,14.0,13.100000381469727,13.40999984741211,13.40999984741211,5452
2008-11-17,12.649999618530273,14.399999618530273,12.649999618530273,13.930000305175781,13.930000305175781,15896
2008-11-18,14.399999618530273,14.399999618530273,13.75,13.75,13.75,3536
2008-11-19,14.350000381469727,14.449999809265137,14.0,14.0,14.0,45870
2008-11-20,13.800000190734863,13.800000190734863,13.0,13.260000228881836,13.260000228881836,15038
2008-11-21,13.949999809265137,13.949999809265137,12.039999961853027,13.229999542236328,13.229999542236328,2339
2008-11-24,13.5,14.0,13.0,13.0,13.0,6056
2008-11-25,13.949999809265137,13.949999809265137,12.5,12.5,12.5,27224
2008-11-26,13.350000381469727,13.350000381469727,12.25,12.75,12.75,2194
2008-11-28,13.399999618530273,13.800000190734863,12.149999618530273,13.420000076293945,13.420000076293945,1621
2008-12-01,11.220000267028809,14.75,11.220000267028809,13.09000015258789,13.09000015258789,1757
2008-12-02,11.300000190734863,13.600000381469727,11.300000190734863,12.970000267028809,12.970000267028809,1561
2008-12-03,12.050000190734863,15.350000381469727,12.050000190734863,12.8100004196167,12.8100004196167,7752
2008-12-04,12.75,13.25,12.5,12.680000305175781,12.680000305175781,3839
2008-12-05,12.979999542236328,13.699999809265137,12.649999618530273,12.779999732971191,12.779999732971191,2646
2008-12-08,12.850000381469727,13.5,12.569999694824219,12.600000381469727,12.600000381469727,8547
2008-12-10,13.220000267028809,13.220000267028809,12.550000190734863,12.949999809265137,12.949999809265137,2698
2008-12-11,13.0,13.25,12.510000228881836,13.0,13.0,21937
2008-12-12,12.600000381469727,13.449999809265137,12.600000381469727,13.3100004196167,13.3100004196167,3464
2008-12-15,13.5,14.850000381469727,13.170000076293945,13.819999694824219,13.819999694824219,3588
2008-12-16,13.550000190734863,15.75,13.550000190734863,14.829999923706055,14.829999923706055,13073
2008-12-17,14.75,16.739999771118164,14.75,15.600000381469727,15.600000381469727,53496
2008-12-18,16.799999237060547,17.700000762939453,14.550000190734863,15.9399995803833,15.9399995803833,7182
2008-12-19,17.389999389648438,17.389999389648438,15.199999809265137,16.31999969482422,16.31999969482422,6481
2008-12-22,19.399999618530273,19.399999618530273,15.0600004196167,15.630000114440918,15.630000114440918,5218
2008-12-23,16.899999618530273,16.899999618530273,14.40999984741211,14.510000228881836,14.510000228881836,6867
2008-12-24,15.899999618530273,15.899999618530273,14.0,14.029999732971191,14.029999732971191,7721
2008-12-26,14.0,14.199999809265137,14.0,14.0,14.0,6875
2008-12-29,14.050000190734863,14.600000381469727,14.0,14.4399995803833,14.4399995803833,3476
2008-12-30,14.039999961853027,15.289999961853027,14.039999961853027,14.529999732971191,14.529999732971191,7252
