Date,Open,High,Low,Close,Adj Close,Volume
2019-01-01,30.0,30.0,29.0,29.5,29.5,1600
2019-01-02,29.600000381469727,30.5,29.5,29.950000762939453,29.950000762939453,4301
2019-01-03,29.0,29.0,28.600000381469727,28.950000762939453,28.950000762939453,3325
2019-01-04,29.899999618530273,29.899999618530273,28.649999618530273,29.200000762939453,29.200000762939453,1916
2019-01-07,30.25,30.25,29.049999237060547,29.049999237060547,29.049999237060547,5699
2019-01-08,29.5,30.350000381469727,28.149999618530273,30.149999618530273,30.149999618530273,9229
2019-01-09,30.850000381469727,30.850000381469727,29.899999618530273,30.0,30.0,4405
2019-01-10,30.950000762939453,30.950000762939453,29.899999618530273,30.0,30.0,31915
2019-01-11,29.899999618530273,31.299999237060547,29.549999237060547,29.899999618530273,29.899999618530273,72069
2019-01-14,30.399999618530273,30.399999618530273,28.450000762939453,28.700000762939453,28.700000762939453,37657
2019-01-15,29.049999237060547,29.049999237060547,27.600000381469727,27.799999237060547,27.799999237060547,34802
2019-01-16,27.75,27.75,26.450000762939453,26.450000762939453,26.450000762939453,42025
2019-01-17,26.100000381469727,26.25,25.25,25.450000762939453,25.450000762939453,38199
2019-01-18,24.600000381469727,25.25,24.5,24.600000381469727,24.600000381469727,16735
2019-01-21,24.5,24.649999618530273,23.950000762939453,24.25,24.25,5953
2019-01-22,24.399999618530273,24.649999618530273,23.700000762939453,24.450000762939453,24.450000762939453,6889
2019-01-23,24.950000762939453,24.950000762939453,24.299999237060547,24.350000381469727,24.350000381469727,3075
2019-01-24,24.700000762939453,24.700000762939453,23.75,23.899999618530273,23.899999618530273,5314
2019-01-25,24.399999618530273,24.549999237060547,23.75,23.799999237060547,23.799999237060547,15718
2019-01-28,23.75,23.75,22.700000762939453,22.850000381469727,22.850000381469727,25437
2019-01-29,22.5,23.549999237060547,22.399999618530273,23.399999618530273,23.399999618530273,16106
2019-01-30,23.899999618530273,24.549999237060547,23.350000381469727,24.0,24.0,25410
2019-01-31,24.0,24.200000762939453,24.0,24.200000762939453,24.200000762939453,6956
2019-02-01,23.950000762939453,24.950000762939453,23.75,24.5,24.5,12349
2019-02-04,24.5,24.5,23.299999237060547,23.299999237060547,23.299999237060547,10109
2019-02-05,23.100000381469727,23.299999237060547,22.25,22.850000381469727,22.850000381469727,7173
2019-02-06,23.200000762939453,23.25,22.950000762939453,23.049999237060547,23.049999237060547,12149
2019-02-07,22.850000381469727,23.100000381469727,22.799999237060547,23.049999237060547,23.049999237060547,6016
2019-02-08,22.850000381469727,23.0,22.700000762939453,22.75,22.75,3593
2019-02-11,23.0,23.100000381469727,22.649999618530273,22.75,22.75,9900
2019-02-12,22.600000381469727,22.950000762939453,22.399999618530273,22.399999618530273,22.399999618530273,6583
2019-02-14,22.25,22.25,21.850000381469727,21.950000762939453,21.950000762939453,12536
2019-02-15,22.200000762939453,22.200000762939453,21.75,21.950000762939453,21.950000762939453,8181
2019-02-18,21.799999237060547,21.799999237060547,20.899999618530273,20.950000762939453,20.950000762939453,13390
2019-02-19,21.100000381469727,21.799999237060547,21.0,21.25,21.25,3330
2019-02-20,21.649999618530273,21.649999618530273,21.0,21.0,21.0,16629
2019-02-21,21.200000762939453,21.549999237060547,21.100000381469727,21.450000762939453,21.450000762939453,6882
2019-02-22,21.549999237060547,22.450000762939453,21.549999237060547,22.0,22.0,28192
2019-02-25,22.049999237060547,22.049999237060547,22.0,22.049999237060547,22.049999237060547,5970
2019-02-26,21.5,22.75,21.5,22.700000762939453,22.700000762939453,18298
2019-02-27,22.0,22.299999237060547,21.600000381469727,21.600000381469727,21.600000381469727,10710
2019-02-28,21.399999618530273,21.799999237060547,20.950000762939453,21.600000381469727,21.600000381469727,5822
2019-03-01,21.799999237060547,22.649999618530273,21.649999618530273,22.549999237060547,22.549999237060547,12591
2019-03-05,22.700000762939453,23.649999618530273,22.700000762939453,23.5,23.5,2193
2019-03-06,24.600000381469727,24.600000381469727,23.100000381469727,24.350000381469727,24.350000381469727,4671
2019-03-07,23.649999618530273,24.0,23.649999618530273,24.0,24.0,876
2019-03-08,23.100000381469727,23.299999237060547,22.950000762939453,23.200000762939453,23.200000762939453,5459
2019-03-11,23.200000762939453,23.549999237060547,23.0,23.549999237060547,23.549999237060547,1933
2019-03-12,23.950000762939453,23.950000762939453,23.5,23.799999237060547,23.799999237060547,1800
2019-03-13,22.799999237060547,23.850000381469727,22.799999237060547,23.149999618530273,23.149999618530273,1523
2019-03-14,22.450000762939453,23.600000381469727,22.450000762939453,22.549999237060547,22.549999237060547,8269
2019-03-15,22.549999237060547,23.200000762939453,22.549999237060547,23.049999237060547,23.049999237060547,4170
2019-03-18,23.75,23.75,22.450000762939453,23.149999618530273,23.149999618530273,2270
2019-03-19,23.149999618530273,23.450000762939453,22.5,22.799999237060547,22.799999237060547,7099
2019-03-20,22.5,23.0,22.5,22.600000381469727,22.600000381469727,3257
2019-03-22,22.049999237060547,22.799999237060547,22.049999237060547,22.5,22.5,5905
2019-03-25,22.049999237060547,22.5,21.850000381469727,22.0,22.0,3661
2019-03-26,22.0,22.200000762939453,21.049999237060547,21.850000381469727,21.850000381469727,9318
2019-03-27,22.700000762939453,22.700000762939453,21.5,21.5,21.5,63926
2019-03-28,22.399999618530273,22.399999618530273,21.5,21.5,21.5,3306
2019-04-01,22.0,22.799999237060547,21.5,22.5,22.5,8833
2019-04-02,23.25,23.25,22.399999618530273,22.899999618530273,22.899999618530273,701
2019-04-03,22.399999618530273,22.600000381469727,22.100000381469727,22.100000381469727,22.100000381469727,1350
2019-04-04,22.799999237060547,22.799999237060547,22.0,22.350000381469727,22.350000381469727,3300
2019-04-05,22.200000762939453,22.75,22.0,22.450000762939453,22.450000762939453,1400
2019-04-08,22.700000762939453,22.700000762939453,22.700000762939453,22.700000762939453,22.700000762939453,150
2019-04-09,22.5,22.799999237060547,21.799999237060547,22.149999618530273,22.149999618530273,3616
2019-04-10,22.100000381469727,22.950000762939453,22.0,22.5,22.5,9327
2019-04-11,23.850000381469727,23.850000381469727,22.0,22.100000381469727,22.100000381469727,4347
2019-04-12,22.299999237060547,22.399999618530273,22.25,22.299999237060547,22.299999237060547,555
2019-04-15,23.649999618530273,23.649999618530273,22.5,22.549999237060547,22.549999237060547,800
2019-04-16,23.149999618530273,23.200000762939453,22.149999618530273,22.399999618530273,22.399999618530273,2248
2019-04-18,22.799999237060547,22.799999237060547,22.399999618530273,22.399999618530273,22.399999618530273,4829
2019-04-22,22.399999618530273,22.5,21.350000381469727,21.950000762939453,21.950000762939453,1548
2019-04-23,22.899999618530273,22.899999618530273,20.899999618530273,21.149999618530273,21.149999618530273,8564
2019-04-24,21.100000381469727,21.5,21.0,21.450000762939453,21.450000762939453,3645
2019-04-25,21.5,22.299999237060547,20.850000381469727,21.049999237060547,21.049999237060547,4403
2019-04-26,22.25,22.25,20.799999237060547,21.350000381469727,21.350000381469727,3454
2019-04-30,20.600000381469727,21.0,20.5,21.0,21.0,554
2019-05-02,20.5,21.0,20.5,20.850000381469727,20.850000381469727,4225
2019-05-03,21.5,21.5,20.700000762939453,20.799999237060547,20.799999237060547,5819
2019-05-06,21.25,21.25,20.600000381469727,20.600000381469727,20.600000381469727,2955
2019-05-07,20.0,21.5,20.0,21.5,21.5,401
2019-05-08,20.149999618530273,20.25,20.149999618530273,20.25,20.25,100
2019-05-09,20.200000762939453,20.850000381469727,20.200000762939453,20.850000381469727,20.850000381469727,150
2019-05-10,20.5,21.0,20.0,20.600000381469727,20.600000381469727,3055
2019-05-13,19.149999618530273,20.600000381469727,19.149999618530273,19.950000762939453,19.950000762939453,952
2019-05-14,19.450000762939453,20.200000762939453,19.450000762939453,20.0,20.0,5598
2019-05-15,20.600000381469727,21.350000381469727,20.5,21.049999237060547,21.049999237060547,7858
2019-05-16,21.0,21.299999237060547,21.0,21.0,21.0,5414
2019-05-17,20.549999237060547,21.149999618530273,20.5,21.100000381469727,21.100000381469727,3184
2019-05-20,21.350000381469727,22.0,21.0,21.649999618530273,21.649999618530273,7403
2019-05-21,20.75,21.649999618530273,20.75,20.950000762939453,20.950000762939453,500
2019-05-22,20.5,21.450000762939453,20.5,20.899999618530273,20.899999618530273,1704
2019-05-23,21.149999618530273,21.850000381469727,21.0,21.049999237060547,21.049999237060547,743
2019-05-24,20.25,22.350000381469727,20.25,21.649999618530273,21.649999618530273,10010
2019-05-27,21.549999237060547,22.100000381469727,21.5,21.799999237060547,21.799999237060547,5387
2019-05-28,22.0,22.0,21.5,21.5,21.5,825
2019-05-29,21.299999237060547,22.0,21.299999237060547,21.850000381469727,21.850000381469727,5727
2019-05-30,20.5,21.799999237060547,20.350000381469727,21.600000381469727,21.600000381469727,13161
2019-05-31,22.5,22.5,20.899999618530273,21.100000381469727,21.100000381469727,8005
2019-06-03,21.0,21.200000762939453,20.600000381469727,20.799999237060547,20.799999237060547,2333
2019-06-04,20.149999618530273,20.450000762939453,20.149999618530273,20.350000381469727,20.350000381469727,4476
2019-06-06,20.350000381469727,21.0,19.799999237060547,20.75,20.75,5928
2019-06-07,21.200000762939453,21.200000762939453,20.0,20.700000762939453,20.700000762939453,2142
2019-06-10,20.5,20.5,20.0,20.100000381469727,20.100000381469727,11974
2019-06-11,20.0,20.5,20.0,20.299999237060547,20.299999237060547,300
2019-06-12,20.049999237060547,20.649999618530273,20.0,20.049999237060547,20.049999237060547,7799
2019-06-13,20.0,20.549999237060547,19.899999618530273,20.5,20.5,7085
2019-06-14,19.799999237060547,20.600000381469727,19.75,20.0,20.0,8886
2019-06-17,19.799999237060547,19.850000381469727,18.5,18.899999618530273,18.899999618530273,15633
2019-06-18,19.0,19.399999618530273,18.350000381469727,18.850000381469727,18.850000381469727,8801
2019-06-19,18.100000381469727,18.100000381469727,16.049999237060547,17.450000762939453,17.450000762939453,61116
2019-06-20,17.0,18.049999237060547,16.350000381469727,17.5,17.5,1915
2019-06-21,17.5,17.549999237060547,16.799999237060547,17.350000381469727,17.350000381469727,4705
2019-06-24,17.299999237060547,17.299999237060547,16.850000381469727,17.0,17.0,6775
2019-06-25,17.049999237060547,18.0,17.0,18.0,18.0,5392
2019-06-26,17.549999237060547,19.350000381469727,17.5,18.299999237060547,18.299999237060547,5454
2019-06-27,17.75,18.5,17.200000762939453,18.049999237060547,18.049999237060547,7460
2019-06-28,18.0,19.899999618530273,18.0,19.149999618530273,19.149999618530273,13034
2019-07-01,19.75,19.75,18.75,19.0,19.0,1910
2019-07-02,19.450000762939453,19.450000762939453,18.799999237060547,18.799999237060547,18.799999237060547,1330
2019-07-03,18.5,18.5,18.200000762939453,18.200000762939453,18.200000762939453,275
2019-07-04,18.200000762939453,19.100000381469727,18.149999618530273,19.0,19.0,4166
2019-07-05,18.5,19.200000762939453,18.5,19.200000762939453,19.200000762939453,5703
2019-07-08,18.649999618530273,18.649999618530273,18.149999618530273,18.200000762939453,18.200000762939453,210
2019-07-09,18.100000381469727,18.100000381469727,18.100000381469727,18.100000381469727,18.100000381469727,100
2019-07-10,18.0,18.0,17.299999237060547,17.600000381469727,17.600000381469727,4530
2019-07-11,17.600000381469727,17.75,17.100000381469727,17.450000762939453,17.450000762939453,8873
2019-07-12,17.299999237060547,17.450000762939453,17.200000762939453,17.450000762939453,17.450000762939453,1201
2019-07-15,17.100000381469727,17.299999237060547,17.0,17.100000381469727,17.100000381469727,4905
2019-07-16,17.0,17.0,16.299999237060547,16.399999618530273,16.399999618530273,11025
2019-07-17,16.600000381469727,17.850000381469727,16.600000381469727,16.75,16.75,7292
2019-07-18,17.0,17.0,16.049999237060547,16.75,16.75,5756
2019-07-19,16.799999237060547,17.299999237060547,16.799999237060547,16.850000381469727,16.850000381469727,8579
2019-07-22,16.25,16.399999618530273,16.200000762939453,16.200000762939453,16.200000762939453,2482
2019-07-23,16.549999237060547,16.549999237060547,16.100000381469727,16.299999237060547,16.299999237060547,8475
2019-07-24,16.100000381469727,16.25,16.0,16.149999618530273,16.149999618530273,3431
2019-07-25,16.350000381469727,16.350000381469727,16.149999618530273,16.149999618530273,16.149999618530273,1575
2019-07-26,15.899999618530273,16.649999618530273,15.899999618530273,16.649999618530273,16.649999618530273,1576
2019-07-29,16.5,16.899999618530273,16.350000381469727,16.75,16.75,14290
2019-07-30,16.899999618530273,17.399999618530273,16.299999237060547,16.399999618530273,16.399999618530273,12058
2019-07-31,16.450000762939453,18.799999237060547,16.25,16.600000381469727,16.600000381469727,14221
2019-08-01,16.200000762939453,16.200000762939453,16.0,16.0,16.0,455
2019-08-02,15.75,15.75,15.699999809265137,15.699999809265137,15.699999809265137,2510
2019-08-05,15.649999618530273,16.350000381469727,14.5,15.100000381469727,15.100000381469727,40781
2019-08-06,15.649999618530273,15.699999809265137,15.100000381469727,15.100000381469727,15.100000381469727,551
2019-08-07,15.399999618530273,15.449999809265137,15.149999618530273,15.199999809265137,15.199999809265137,4150
2019-08-08,15.25,15.350000381469727,15.0,15.050000190734863,15.050000190734863,4131
2019-08-09,15.0,16.399999618530273,15.0,15.850000381469727,15.850000381469727,3249
2019-08-13,17.399999618530273,17.399999618530273,14.25,14.399999618530273,14.399999618530273,21862
2019-08-14,14.5,14.699999809265137,14.300000190734863,14.5,14.5,25731
2019-08-16,14.199999809265137,14.949999809265137,14.199999809265137,14.949999809265137,14.949999809265137,8875
2019-08-19,15.0,15.0,14.5,14.5,14.5,5760
2019-08-20,14.949999809265137,14.949999809265137,14.100000381469727,14.199999809265137,14.199999809265137,11818
2019-08-21,13.949999809265137,14.0,13.800000190734863,13.800000190734863,13.800000190734863,8110
2019-08-22,13.75,13.75,13.0,13.0,13.0,26300
2019-08-23,12.949999809265137,13.5,12.800000190734863,13.199999809265137,13.199999809265137,8163
2019-08-26,13.25,13.850000381469727,13.25,13.699999809265137,13.699999809265137,1775
2019-08-27,14.25,14.449999809265137,13.600000381469727,13.699999809265137,13.699999809265137,27228
2019-08-28,13.899999618530273,14.300000190734863,13.850000381469727,13.949999809265137,13.949999809265137,1440
2019-08-29,13.600000381469727,13.899999618530273,13.5,13.5,13.5,4064
2019-08-30,13.800000190734863,14.649999618530273,13.699999809265137,13.850000381469727,13.850000381469727,10246
2019-09-03,14.25,14.619999885559082,14.25,14.59000015258789,14.59000015258789,683
2019-09-04,14.279999732971191,14.5,14.0600004196167,14.5,14.5,6035
2019-09-05,15.0,15.0,14.40999984741211,14.5,14.5,234
2019-09-06,15.149999618530273,16.0,15.149999618530273,15.779999732971191,15.779999732971191,7905
2019-09-09,15.630000114440918,16.850000381469727,15.600000381469727,16.510000228881836,16.510000228881836,9755
2019-09-11,18.600000381469727,19.809999465942383,18.299999237060547,19.0,19.0,46063
2019-09-12,18.75,21.040000915527344,17.610000610351562,18.770000457763672,18.770000457763672,21334
2019-09-13,18.100000381469727,18.5,17.600000381469727,18.31999969482422,18.31999969482422,12682
2019-09-16,17.75,19.0,17.75,18.190000534057617,18.190000534057617,715
2019-09-17,18.0,18.0,17.5,17.5,17.5,7700
2019-09-18,15.149999618530273,18.600000381469727,15.149999618530273,18.079999923706055,18.079999923706055,5500
2019-09-19,20.950000762939453,20.950000762939453,17.649999618530273,18.1299991607666,18.1299991607666,8068
2019-09-20,17.649999618530273,18.5,17.510000228881836,17.889999389648438,17.889999389648438,4639
2019-09-23,17.299999237060547,19.139999389648438,17.299999237060547,17.780000686645508,17.780000686645508,5200
2019-09-24,17.450000762939453,18.450000762939453,17.299999237060547,17.600000381469727,17.600000381469727,666
2019-09-25,17.299999237060547,18.200000762939453,17.149999618530273,17.329999923706055,17.329999923706055,6388
2019-09-26,17.450000762939453,19.950000762939453,16.790000915527344,19.200000762939453,19.200000762939453,20665
2019-09-27,19.799999237060547,19.799999237060547,18.209999084472656,18.489999771118164,18.489999771118164,9521
2019-09-30,18.700000762939453,18.700000762939453,16.75,16.989999771118164,16.989999771118164,11449
2019-10-01,18.799999237060547,18.799999237060547,15.800000190734863,16.399999618530273,16.399999618530273,19768
2019-10-03,15.800000190734863,16.049999237060547,15.600000381469727,15.699999809265137,15.699999809265137,5980
2019-10-04,15.949999809265137,15.949999809265137,15.199999809265137,15.399999618530273,15.399999618530273,2813
2019-10-07,15.050000190734863,15.850000381469727,15.050000190734863,15.300000190734863,15.300000190734863,28746
2019-10-09,15.050000190734863,15.050000190734863,14.699999809265137,14.800000190734863,14.800000190734863,5011
2019-10-10,14.550000190734863,15.449999809265137,14.199999809265137,14.25,14.25,4865
2019-10-11,15.449999809265137,15.449999809265137,13.899999618530273,14.850000381469727,14.850000381469727,653
2019-10-14,14.25,14.649999618530273,14.25,14.399999618530273,14.399999618530273,2162
2019-10-15,14.350000381469727,16.25,14.350000381469727,15.600000381469727,15.600000381469727,7862891
2019-10-16,16.350000381469727,17.299999237060547,16.0,17.100000381469727,17.100000381469727,3735
2019-10-17,16.549999237060547,17.25,16.5,16.799999237060547,16.799999237060547,4064
2019-10-18,16.600000381469727,16.850000381469727,16.600000381469727,16.75,16.75,675
2019-10-22,16.600000381469727,16.950000762939453,16.600000381469727,16.600000381469727,16.600000381469727,3031
2019-10-23,16.649999618530273,16.950000762939453,16.649999618530273,16.799999237060547,16.799999237060547,3600
2019-10-24,17.0,17.0,17.0,17.0,17.0,100
2019-10-25,16.350000381469727,17.049999237060547,16.049999237060547,16.399999618530273,16.399999618530273,705
2019-10-27,16.850000381469727,16.850000381469727,16.450000762939453,16.450000762939453,16.450000762939453,200
2019-10-29,16.350000381469727,16.350000381469727,15.899999618530273,16.100000381469727,16.100000381469727,5225
2019-10-30,16.200000762939453,16.75,15.600000381469727,15.699999809265137,15.699999809265137,2079
2019-10-31,18.5,18.5,15.5,16.25,16.25,9440
2019-11-01,15.949999809265137,16.100000381469727,15.949999809265137,16.049999237060547,16.049999237060547,2006
2019-11-04,15.850000381469727,15.949999809265137,15.75,15.850000381469727,15.850000381469727,5725
2019-11-05,16.100000381469727,16.100000381469727,16.100000381469727,16.100000381469727,16.100000381469727,15
2019-11-06,15.600000381469727,16.5,15.600000381469727,15.75,15.75,3343
2019-11-07,15.399999618530273,15.649999618530273,15.399999618530273,15.649999618530273,15.649999618530273,319
2019-11-08,15.5,15.800000190734863,15.300000190734863,15.800000190734863,15.800000190734863,813
2019-11-11,15.199999809265137,15.300000190734863,15.199999809265137,15.300000190734863,15.300000190734863,2882
2019-11-13,15.850000381469727,15.850000381469727,15.050000190734863,15.050000190734863,15.050000190734863,6554
2019-11-14,16.600000381469727,16.600000381469727,14.699999809265137,15.25,15.25,4326
2019-11-15,13.899999618530273,15.399999618530273,13.899999618530273,15.399999618530273,15.399999618530273,688
2019-11-18,14.949999809265137,15.050000190734863,14.600000381469727,14.699999809265137,14.699999809265137,3916
2019-11-19,14.75,15.449999809265137,14.649999618530273,14.649999618530273,14.649999618530273,186
2019-11-20,14.350000381469727,14.800000190734863,14.25,14.800000190734863,14.800000190734863,3021
2019-11-21,14.649999618530273,14.949999809265137,14.600000381469727,14.949999809265137,14.949999809265137,380
2019-11-22,14.5,14.5,14.100000381469727,14.199999809265137,14.199999809265137,4278
2019-11-25,14.550000190734863,14.600000381469727,14.149999618530273,14.25,14.25,3748
2019-11-26,14.350000381469727,14.649999618530273,14.149999618530273,14.149999618530273,14.149999618530273,2735
2019-11-27,14.25,14.25,14.149999618530273,14.149999618530273,14.149999618530273,101
2019-11-28,14.100000381469727,14.449999809265137,14.100000381469727,14.449999809265137,14.449999809265137,270
2019-11-29,14.600000381469727,14.600000381469727,14.399999618530273,14.399999618530273,14.399999618530273,400
2019-12-02,14.420000076293945,14.600000381469727,14.25,14.600000381469727,14.600000381469727,2530
2019-12-03,14.140000343322754,14.300000190734863,14.100000381469727,14.100000381469727,14.100000381469727,1726
2019-12-04,14.34000015258789,14.550000190734863,14.100000381469727,14.550000190734863,14.550000190734863,8305
2019-12-05,14.050000190734863,14.699999809265137,14.050000190734863,14.350000381469727,14.350000381469727,182
2019-12-06,14.75,14.75,13.84000015258789,13.989999771118164,13.989999771118164,7972
2019-12-09,14.239999771118164,14.239999771118164,13.520000457763672,13.829999923706055,13.829999923706055,11196
2019-12-10,14.199999809265137,14.199999809265137,13.40999984741211,13.40999984741211,13.40999984741211,3403
2019-12-11,13.210000038146973,13.25,13.210000038146973,13.210000038146973,13.210000038146973,4059
2019-12-12,13.25,13.25,13.25,13.25,13.25,25
2019-12-13,13.6899995803833,13.6899995803833,13.260000228881836,13.5,13.5,7221
2019-12-16,13.0,13.4399995803833,13.0,13.4399995803833,13.4399995803833,2311
2019-12-17,14.850000381469727,15.050000190734863,14.149999618530273,14.199999809265137,14.199999809265137,9029
2019-12-18,13.850000381469727,14.149999618530273,13.649999618530273,13.90999984741211,13.90999984741211,1641
2019-12-19,13.90999984741211,14.050000190734863,13.510000228881836,14.050000190734863,14.050000190734863,5162
2019-12-20,14.050000190734863,14.1899995803833,13.619999885559082,13.619999885559082,13.619999885559082,1460
2019-12-23,13.989999771118164,13.989999771118164,13.5600004196167,13.720000267028809,13.720000267028809,1825
2019-12-24,13.800000190734863,14.550000190734863,12.699999809265137,13.109999656677246,13.109999656677246,31636
2019-12-26,13.270000457763672,13.270000457763672,12.90999984741211,13.050000190734863,13.050000190734863,4204
2019-12-27,13.0,14.210000038146973,13.0,14.0,14.0,10396
2019-12-30,14.609999656677246,14.609999656677246,13.550000190734863,13.65999984741211,13.65999984741211,2552
