Date,Open,High,Low,Close,Adj Close,Volume
2018-01-01,29.450000762939453,35.099998474121094,29.450000762939453,34.70000076293945,34.70000076293945,414181
2018-01-02,35.79999923706055,36.70000076293945,32.849998474121094,33.5,33.5,198822
2018-01-03,34.349998474121094,34.650001525878906,32.0,32.900001525878906,32.900001525878906,87000
2018-01-04,33.900001525878906,39.45000076293945,33.849998474121094,39.04999923706055,39.04999923706055,346485
2018-01-05,38.79999923706055,38.79999923706055,36.45000076293945,36.79999923706055,36.79999923706055,207817
2018-01-08,36.79999923706055,38.70000076293945,36.25,37.5,37.5,195451
2018-01-09,37.45000076293945,38.70000076293945,36.25,38.25,38.25,264631
2018-01-10,38.0,38.70000076293945,36.400001525878906,36.5,36.5,71242
2018-01-11,36.29999923706055,37.70000076293945,36.150001525878906,37.349998474121094,37.349998474121094,192112
2018-01-12,37.650001525878906,39.0,36.0,37.75,37.75,175424
2018-01-15,38.0,38.79999923706055,36.79999923706055,37.04999923706055,37.04999923706055,128690
2018-01-16,37.5,38.0,35.79999923706055,36.099998474121094,36.099998474121094,81365
2018-01-17,35.5,36.45000076293945,34.349998474121094,34.900001525878906,34.900001525878906,26609
2018-01-18,35.0,36.0,34.099998474121094,34.70000076293945,34.70000076293945,222183
2018-01-19,34.25,34.599998474121094,33.25,33.900001525878906,33.900001525878906,22273
2018-01-22,34.900001525878906,34.900001525878906,33.25,33.54999923706055,33.54999923706055,35524
2018-01-23,33.900001525878906,34.25,33.54999923706055,33.849998474121094,33.849998474121094,33466
2018-01-24,33.45000076293945,34.04999923706055,31.899999618530273,32.20000076293945,32.20000076293945,40382
2018-01-25,33.150001525878906,36.400001525878906,31.950000762939453,32.349998474121094,32.349998474121094,247591
2018-01-29,32.25,32.25,30.299999237060547,30.700000762939453,30.700000762939453,17587
2018-01-30,30.700000762939453,30.700000762939453,28.049999237060547,28.299999237060547,28.299999237060547,36301
2018-01-31,28.0,29.200000762939453,28.0,28.600000381469727,28.600000381469727,23084
2018-02-01,28.0,30.0,28.0,29.850000381469727,29.850000381469727,13310
2018-02-02,28.799999237060547,28.799999237060547,27.850000381469727,28.299999237060547,28.299999237060547,19974
2018-02-05,26.950000762939453,27.75,26.549999237060547,27.399999618530273,27.399999618530273,18585
2018-02-07,29.700000762939453,29.700000762939453,28.25,28.850000381469727,28.850000381469727,13133
2018-02-08,28.299999237060547,31.799999237060547,28.299999237060547,30.5,30.5,71874
2018-02-09,29.149999618530273,30.399999618530273,28.899999618530273,30.0,30.0,35658
2018-02-12,30.75,31.799999237060547,30.25,30.5,30.5,80512
2018-02-14,30.049999237060547,30.450000762939453,28.700000762939453,28.899999618530273,28.899999618530273,28497
2018-02-15,29.100000381469727,29.399999618530273,28.700000762939453,28.799999237060547,28.799999237060547,4468
2018-02-16,28.600000381469727,28.600000381469727,27.850000381469727,28.049999237060547,28.049999237060547,13925
2018-02-19,27.649999618530273,29.0,27.200000762939453,28.299999237060547,28.299999237060547,11251
2018-02-20,28.350000381469727,28.399999618530273,27.75,27.950000762939453,27.950000762939453,10225
2018-02-21,28.149999618530273,28.399999618530273,27.549999237060547,27.850000381469727,27.850000381469727,6894
2018-02-22,28.049999237060547,28.049999237060547,27.0,27.149999618530273,27.149999618530273,6728
2018-02-23,28.149999618530273,29.700000762939453,27.5,28.950000762939453,28.950000762939453,182916
2018-02-26,29.700000762939453,29.75,28.25,29.049999237060547,29.049999237060547,58138
2018-02-27,28.5,29.100000381469727,28.149999618530273,28.299999237060547,28.299999237060547,832
2018-02-28,27.75,28.399999618530273,27.75,28.0,28.0,23954
2018-03-01,28.700000762939453,28.75,27.700000762939453,27.899999618530273,27.899999618530273,36715
2018-03-07,26.5,27.149999618530273,26.100000381469727,26.700000762939453,26.700000762939453,22537
2018-03-08,26.950000762939453,26.950000762939453,26.299999237060547,26.600000381469727,26.600000381469727,28999
2018-03-09,26.350000381469727,26.950000762939453,26.350000381469727,26.399999618530273,26.399999618530273,4972
2018-03-12,26.700000762939453,27.049999237060547,26.700000762939453,27.0,27.0,4314
2018-03-13,27.350000381469727,27.5,26.649999618530273,27.049999237060547,27.049999237060547,7497
2018-03-14,26.950000762939453,30.700000762939453,26.950000762939453,30.100000381469727,30.100000381469727,13618
2018-03-15,29.899999618530273,30.399999618530273,28.049999237060547,28.5,28.5,30820
2018-03-16,29.0,30.0,28.399999618530273,28.649999618530273,28.649999618530273,33583
2018-03-19,31.700000762939453,31.700000762939453,27.700000762939453,28.850000381469727,28.850000381469727,39798
2018-03-20,28.75,28.75,27.049999237060547,27.75,27.75,31397
2018-03-21,28.950000762939453,28.950000762939453,27.5,27.549999237060547,27.549999237060547,14039
2018-03-22,27.600000381469727,28.0,27.100000381469727,27.200000762939453,27.200000762939453,6194
2018-03-23,26.549999237060547,26.899999618530273,26.0,26.149999618530273,26.149999618530273,21388
2018-03-26,26.450000762939453,26.450000762939453,25.149999618530273,25.700000762939453,25.700000762939453,46143
2018-03-27,26.0,26.200000762939453,25.200000762939453,25.5,25.5,25241
2018-03-28,25.549999237060547,25.549999237060547,24.5,24.5,24.5,15554
2018-04-02,25.100000381469727,25.25,24.649999618530273,24.799999237060547,24.799999237060547,71766
2018-04-03,24.899999618530273,25.5,24.200000762939453,24.899999618530273,24.899999618530273,45400
2018-04-04,26.200000762939453,26.350000381469727,25.200000762939453,25.649999618530273,25.649999618530273,27851
2018-04-05,26.149999618530273,27.649999618530273,25.950000762939453,27.149999618530273,27.149999618530273,52870
2018-04-06,27.200000762939453,27.450000762939453,26.450000762939453,27.200000762939453,27.200000762939453,4490
2018-04-09,27.850000381469727,27.899999618530273,27.0,27.149999618530273,27.149999618530273,19360
2018-04-10,27.25,27.799999237060547,26.700000762939453,27.299999237060547,27.299999237060547,22125
2018-04-11,27.450000762939453,27.5,26.0,26.450000762939453,26.450000762939453,18589
2018-04-12,26.549999237060547,27.100000381469727,26.350000381469727,26.5,26.5,11038
2018-04-13,26.299999237060547,28.049999237060547,26.299999237060547,27.350000381469727,27.350000381469727,25644
2018-04-16,27.100000381469727,27.5,26.600000381469727,26.700000762939453,26.700000762939453,22840
2018-04-17,27.100000381469727,27.100000381469727,26.5,26.600000381469727,26.600000381469727,11190
2018-04-18,26.75,26.75,26.75,26.75,26.75,450
2018-04-19,26.700000762939453,27.200000762939453,26.700000762939453,27.0,27.0,8607
2018-04-20,27.299999237060547,27.299999237060547,26.600000381469727,26.649999618530273,26.649999618530273,29430
2018-04-23,27.049999237060547,27.25,26.200000762939453,26.5,26.5,27051
2018-04-24,27.0,27.899999618530273,26.200000762939453,27.299999237060547,27.299999237060547,87592
2018-04-25,27.5,27.5,26.0,26.049999237060547,26.049999237060547,33313
2018-04-26,26.299999237060547,26.649999618530273,25.850000381469727,26.299999237060547,26.299999237060547,18108
2018-04-27,26.600000381469727,27.549999237060547,26.350000381469727,27.25,27.25,16215
2018-04-30,27.299999237060547,27.700000762939453,27.299999237060547,27.600000381469727,27.600000381469727,10365
2018-05-02,27.149999618530273,27.25,26.399999618530273,26.5,26.5,10671
2018-05-03,26.799999237060547,26.899999618530273,26.100000381469727,26.600000381469727,26.600000381469727,23430
2018-05-04,26.799999237060547,27.899999618530273,26.399999618530273,27.600000381469727,27.600000381469727,33321
2018-05-07,27.700000762939453,28.75,27.25,28.399999618530273,28.399999618530273,38654
2018-05-08,26.549999237060547,28.950000762939453,26.549999237060547,28.399999618530273,28.399999618530273,23826
2018-05-09,28.299999237060547,28.450000762939453,27.549999237060547,27.700000762939453,27.700000762939453,24733
2018-05-10,28.299999237060547,28.399999618530273,27.049999237060547,27.049999237060547,27.049999237060547,15550
2018-05-11,27.100000381469727,27.149999618530273,26.799999237060547,27.049999237060547,27.049999237060547,7785
2018-05-14,26.799999237060547,26.799999237060547,26.549999237060547,26.700000762939453,26.700000762939453,3364
2018-05-15,27.0,27.200000762939453,26.549999237060547,26.950000762939453,26.950000762939453,4984
2018-05-16,26.299999237060547,26.899999618530273,26.100000381469727,26.799999237060547,26.799999237060547,4289
2018-05-17,27.049999237060547,27.5,26.450000762939453,27.100000381469727,27.100000381469727,10177
2018-05-18,26.100000381469727,27.5,26.100000381469727,26.799999237060547,26.799999237060547,6917
2018-05-21,27.200000762939453,27.200000762939453,24.649999618530273,25.25,25.25,17913
2018-05-22,24.649999618530273,24.700000762939453,24.200000762939453,24.25,24.25,3882
2018-05-23,24.950000762939453,24.950000762939453,24.149999618530273,24.450000762939453,24.450000762939453,2463
2018-05-24,24.25,24.549999237060547,24.25,24.299999237060547,24.299999237060547,2600
2018-05-25,23.899999618530273,24.299999237060547,23.899999618530273,24.299999237060547,24.299999237060547,1650
2018-05-28,24.299999237060547,25.200000762939453,24.0,24.899999618530273,24.899999618530273,5163
2018-05-29,24.950000762939453,25.5,24.850000381469727,25.200000762939453,25.200000762939453,16545
2018-05-30,25.149999618530273,25.899999618530273,25.100000381469727,25.600000381469727,25.600000381469727,5550
2018-05-31,25.299999237060547,25.299999237060547,24.25,24.350000381469727,24.350000381469727,14628
2018-06-01,24.25,24.25,23.75,23.950000762939453,23.950000762939453,1131
2018-06-04,23.100000381469727,24.0,21.149999618530273,22.049999237060547,22.049999237060547,17485
2018-06-05,21.700000762939453,22.299999237060547,21.649999618530273,22.299999237060547,22.299999237060547,2901
2018-06-06,21.850000381469727,22.399999618530273,21.850000381469727,22.399999618530273,22.399999618530273,1218
2018-06-07,22.5,23.0,22.399999618530273,22.450000762939453,22.450000762939453,12600
2018-06-08,21.899999618530273,22.350000381469727,21.25,21.899999618530273,21.899999618530273,4668
2018-06-11,22.0,22.0,21.600000381469727,21.649999618530273,21.649999618530273,25750
2018-06-12,21.950000762939453,22.899999618530273,21.950000762939453,22.5,22.5,3030
2018-06-13,22.850000381469727,23.399999618530273,22.600000381469727,23.25,23.25,2054
2018-06-14,23.450000762939453,23.899999618530273,22.850000381469727,23.549999237060547,23.549999237060547,1612
2018-06-15,23.200000762939453,23.5,23.149999618530273,23.5,23.5,1800
2018-06-18,23.0,23.399999618530273,22.600000381469727,23.149999618530273,23.149999618530273,5271
2018-06-19,22.549999237060547,22.649999618530273,22.5,22.5,22.5,816
2018-06-20,22.700000762939453,22.700000762939453,22.299999237060547,22.299999237060547,22.299999237060547,3623
2018-06-21,22.25,22.25,22.049999237060547,22.049999237060547,22.049999237060547,911
2018-06-22,22.450000762939453,22.5,22.200000762939453,22.299999237060547,22.299999237060547,1250
2018-06-25,22.799999237060547,23.0,22.600000381469727,23.0,23.0,4400
2018-06-26,22.5,22.649999618530273,22.5,22.549999237060547,22.549999237060547,1225
2018-06-27,22.350000381469727,22.350000381469727,20.0,20.200000762939453,20.200000762939453,15971
2018-06-28,20.950000762939453,23.0,20.950000762939453,21.950000762939453,21.950000762939453,11887
2018-06-29,22.0,22.549999237060547,21.799999237060547,22.299999237060547,22.299999237060547,1503
2018-07-02,22.100000381469727,22.100000381469727,21.100000381469727,21.450000762939453,21.450000762939453,16143
2018-07-03,21.299999237060547,22.0,21.299999237060547,21.950000762939453,21.950000762939453,5775
2018-07-04,22.100000381469727,26.299999237060547,22.100000381469727,26.149999618530273,26.149999618530273,65421
2018-07-05,27.5,31.350000381469727,26.5,31.299999237060547,31.299999237060547,198963
2018-07-06,31.399999618530273,32.5,28.549999237060547,31.649999618530273,31.649999618530273,96279
2018-07-09,32.5,33.900001525878906,31.549999237060547,32.20000076293945,32.20000076293945,79186
2018-07-10,31.549999237060547,31.950000762939453,30.0,31.149999618530273,31.149999618530273,18159
2018-07-11,30.700000762939453,30.700000762939453,28.600000381469727,30.049999237060547,30.049999237060547,22174
2018-07-12,29.75,30.5,28.450000762939453,28.700000762939453,28.700000762939453,19124
2018-07-13,28.299999237060547,28.5,26.5,26.75,26.75,14202
2018-07-16,25.5,27.649999618530273,25.5,26.399999618530273,26.399999618530273,7153
2018-07-17,26.25,27.600000381469727,26.25,26.299999237060547,26.299999237060547,13933
2018-07-18,26.600000381469727,26.600000381469727,24.600000381469727,24.75,24.75,4876
2018-07-19,25.0,25.0,23.549999237060547,24.200000762939453,24.200000762939453,20788
2018-07-20,24.299999237060547,24.450000762939453,23.799999237060547,24.25,24.25,5385
2018-07-23,24.600000381469727,25.850000381469727,24.5,25.399999618530273,25.399999618530273,3448
2018-07-24,25.100000381469727,26.0,25.100000381469727,25.549999237060547,25.549999237060547,1854
2018-07-25,25.899999618530273,25.899999618530273,25.0,25.0,25.0,13064
2018-07-26,24.899999618530273,25.0,22.75,23.399999618530273,23.399999618530273,28710
2018-07-27,22.149999618530273,24.350000381469727,22.149999618530273,23.950000762939453,23.950000762939453,160052
2018-07-30,24.299999237060547,24.700000762939453,24.149999618530273,24.549999237060547,24.549999237060547,8207
2018-07-31,23.799999237060547,25.5,23.799999237060547,25.049999237060547,25.049999237060547,9911
2018-08-01,25.5,27.200000762939453,25.5,26.5,26.5,47900
2018-08-02,27.0,27.600000381469727,25.0,26.350000381469727,26.350000381469727,53659
2018-08-03,26.850000381469727,27.149999618530273,25.799999237060547,26.149999618530273,26.149999618530273,9044
2018-08-06,27.5,28.149999618530273,27.25,27.850000381469727,27.850000381469727,19146
2018-08-07,29.799999237060547,29.799999237060547,26.25,27.399999618530273,27.399999618530273,72142
2018-08-08,26.899999618530273,28.25,26.549999237060547,27.0,27.0,7613
2018-08-09,26.75,26.799999237060547,25.649999618530273,26.600000381469727,26.600000381469727,11385
2018-08-10,26.25,28.0,26.25,27.049999237060547,27.049999237060547,11434
2018-08-13,26.950000762939453,27.899999618530273,26.950000762939453,27.200000762939453,27.200000762939453,3238
2018-08-14,27.0,28.25,26.75,28.0,28.0,93528
2018-08-16,28.549999237060547,29.450000762939453,28.0,28.75,28.75,23132
2018-08-17,29.25,30.200000762939453,28.5,29.25,29.25,53332
2018-08-20,29.649999618530273,29.649999618530273,29.0,29.25,29.25,4352
2018-08-21,29.100000381469727,30.299999237060547,28.799999237060547,29.149999618530273,29.149999618530273,47093
2018-08-23,29.0,29.25,28.5,28.5,28.5,4126
2018-08-24,28.5,28.5,27.0,27.299999237060547,27.299999237060547,22707
2018-08-27,27.5,28.0,26.850000381469727,26.850000381469727,26.850000381469727,25573
2018-08-28,27.649999618530273,27.649999618530273,26.450000762939453,26.700000762939453,26.700000762939453,1865
2018-08-29,26.5,27.0,26.399999618530273,26.399999618530273,26.399999618530273,2094
2018-08-30,27.899999618530273,27.899999618530273,26.0,26.049999237060547,26.049999237060547,4439
2018-08-31,26.0,26.5,26.0,26.149999618530273,26.149999618530273,1275
2018-09-03,26.100000381469727,28.100000381469727,26.100000381469727,26.350000381469727,26.350000381469727,5195
2018-09-04,26.549999237060547,26.549999237060547,25.799999237060547,25.799999237060547,25.799999237060547,1526
2018-09-05,27.0,27.0,25.350000381469727,26.049999237060547,26.049999237060547,4129
2018-09-06,26.950000762939453,28.950000762939453,26.100000381469727,28.0,28.0,27860
2018-09-07,28.799999237060547,28.899999618530273,27.600000381469727,27.75,27.75,15078
2018-09-10,27.850000381469727,28.149999618530273,26.649999618530273,26.950000762939453,26.950000762939453,5736
2018-09-11,27.5,28.799999237060547,26.549999237060547,27.049999237060547,27.049999237060547,12670
2018-09-12,26.75,27.200000762939453,26.75,26.799999237060547,26.799999237060547,4268
2018-09-14,26.549999237060547,27.25,26.549999237060547,26.75,26.75,1101
2018-09-17,26.0,26.399999618530273,25.799999237060547,26.0,26.0,8315
2018-09-18,25.850000381469727,26.149999618530273,25.549999237060547,25.75,25.75,3373
2018-09-19,26.149999618530273,27.200000762939453,25.799999237060547,25.950000762939453,25.950000762939453,13136
2018-09-21,26.200000762939453,26.350000381469727,25.100000381469727,25.25,25.25,5665
2018-09-24,25.100000381469727,25.100000381469727,24.549999237060547,25.0,25.0,4424
2018-09-25,25.549999237060547,25.600000381469727,24.850000381469727,25.149999618530273,25.149999618530273,2855
2018-09-26,25.799999237060547,25.799999237060547,25.25,25.600000381469727,25.600000381469727,5722
2018-09-27,24.799999237060547,24.799999237060547,24.450000762939453,24.649999618530273,24.649999618530273,2060
2018-09-28,24.049999237060547,24.299999237060547,23.5,23.700000762939453,23.700000762939453,8453
2018-10-01,22.75,24.0,22.649999618530273,23.0,23.0,10987
2018-10-03,23.899999618530273,23.899999618530273,23.0,23.0,23.0,8810
2018-10-04,19.200000762939453,23.799999237060547,19.200000762939453,21.399999618530273,21.399999618530273,392505
2018-10-05,22.399999618530273,22.399999618530273,20.5,21.549999237060547,21.549999237060547,154224
2018-10-08,21.950000762939453,22.350000381469727,21.649999618530273,22.149999618530273,22.149999618530273,16805
2018-10-09,22.200000762939453,22.25,21.899999618530273,22.0,22.0,10537
2018-10-10,22.549999237060547,23.0,21.950000762939453,22.799999237060547,22.799999237060547,11563
2018-10-11,21.049999237060547,22.799999237060547,21.049999237060547,22.5,22.5,3857
2018-10-12,22.5,23.0,22.5,22.549999237060547,22.549999237060547,5351
2018-10-15,23.149999618530273,23.149999618530273,22.399999618530273,22.450000762939453,22.450000762939453,63071
2018-10-16,23.200000762939453,25.0,22.600000381469727,24.850000381469727,24.850000381469727,36506
2018-10-17,26.299999237060547,29.649999618530273,26.299999237060547,28.049999237060547,28.049999237060547,153301
2018-10-19,28.5,29.25,27.649999618530273,28.600000381469727,28.600000381469727,52451
2018-10-22,29.0,29.200000762939453,27.799999237060547,28.049999237060547,28.049999237060547,23696
2018-10-23,27.100000381469727,27.649999618530273,26.700000762939453,27.049999237060547,27.049999237060547,10765
2018-10-24,27.25,27.399999618530273,26.25,27.0,27.0,11346
2018-10-25,25.799999237060547,26.600000381469727,25.649999618530273,26.0,26.0,20558
2018-10-26,26.0,27.299999237060547,25.850000381469727,26.75,26.75,26757
2018-10-29,27.799999237060547,28.0,26.25,27.299999237060547,27.299999237060547,15379
2018-10-30,27.5,28.5,27.399999618530273,27.549999237060547,27.549999237060547,25785
2018-10-31,27.149999618530273,28.649999618530273,27.149999618530273,28.350000381469727,28.350000381469727,10662
2018-11-01,29.049999237060547,29.100000381469727,28.200000762939453,28.450000762939453,28.450000762939453,17191
2018-11-02,29.0,29.799999237060547,28.450000762939453,28.700000762939453,28.700000762939453,46607
2018-11-05,30.100000381469727,30.100000381469727,30.100000381469727,30.100000381469727,30.100000381469727,41368
2018-11-06,31.600000381469727,31.600000381469727,31.600000381469727,31.600000381469727,31.600000381469727,12315
2018-11-07,33.150001525878906,33.150001525878906,33.150001525878906,33.150001525878906,33.150001525878906,43888
2018-11-09,34.70000076293945,34.70000076293945,32.0,33.45000076293945,33.45000076293945,39494
2018-11-12,34.0,34.0,31.850000381469727,32.04999923706055,32.04999923706055,24765
2018-11-13,32.0,33.0,30.799999237060547,32.20000076293945,32.20000076293945,31205
2018-11-14,32.400001525878906,32.45000076293945,31.5,32.099998474121094,32.099998474121094,19102
2018-11-15,33.5,33.5,31.5,31.700000762939453,31.700000762939453,11392
2018-11-16,32.95000076293945,33.0,31.0,31.149999618530273,31.149999618530273,10054
2018-11-19,31.799999237060547,31.799999237060547,30.149999618530273,30.5,30.5,17033
2018-11-20,31.200000762939453,31.200000762939453,29.850000381469727,30.200000762939453,30.200000762939453,13120
2018-11-21,30.75,30.75,29.0,29.299999237060547,29.299999237060547,10822
2018-11-22,29.5,30.100000381469727,29.5,30.049999237060547,30.049999237060547,11138
2018-11-26,30.0,30.0,29.299999237060547,29.600000381469727,29.600000381469727,557
2018-11-27,29.0,29.5,28.600000381469727,28.649999618530273,28.649999618530273,4609
2018-11-28,29.0,29.0,28.149999618530273,28.850000381469727,28.850000381469727,7083
2018-11-29,28.799999237060547,29.0,28.25,28.399999618530273,28.399999618530273,10583
2018-11-30,29.350000381469727,29.5,28.5,29.399999618530273,29.399999618530273,9607
2018-12-03,30.799999237060547,30.799999237060547,29.100000381469727,30.049999237060547,30.049999237060547,9085
2018-12-04,29.5,30.049999237060547,28.549999237060547,29.399999618530273,29.399999618530273,6154
2018-12-05,29.25,29.5,29.149999618530273,29.200000762939453,29.200000762939453,2320
2018-12-06,30.100000381469727,30.100000381469727,28.75,29.299999237060547,29.299999237060547,11310
2018-12-07,28.549999237060547,29.049999237060547,28.549999237060547,28.899999618530273,28.899999618530273,1750
2018-12-10,28.100000381469727,28.100000381469727,28.049999237060547,28.049999237060547,28.049999237060547,1000
2018-12-11,27.299999237060547,28.850000381469727,27.299999237060547,28.850000381469727,28.850000381469727,11576
2018-12-12,28.399999618530273,28.950000762939453,28.399999618530273,28.649999618530273,28.649999618530273,1500
2018-12-13,29.899999618530273,29.899999618530273,28.899999618530273,29.25,29.25,1897
2018-12-14,30.600000381469727,30.600000381469727,28.75,28.950000762939453,28.950000762939453,1714
2018-12-17,29.0,30.350000381469727,29.0,29.649999618530273,29.649999618530273,10885
2018-12-18,29.75,29.850000381469727,29.399999618530273,29.700000762939453,29.700000762939453,2587
2018-12-19,29.5,29.899999618530273,29.350000381469727,29.600000381469727,29.600000381469727,5349
2018-12-20,29.850000381469727,31.049999237060547,29.549999237060547,30.700000762939453,30.700000762939453,61580
2018-12-21,30.700000762939453,31.0,29.700000762939453,29.799999237060547,29.799999237060547,13121
2018-12-24,29.600000381469727,30.149999618530273,29.600000381469727,29.600000381469727,29.600000381469727,12875
2018-12-26,30.0,30.0,29.049999237060547,29.200000762939453,29.200000762939453,1727
2018-12-27,29.899999618530273,30.600000381469727,28.799999237060547,28.899999618530273,28.899999618530273,11750
2018-12-28,28.899999618530273,30.149999618530273,28.899999618530273,29.75,29.75,11131
