Date,Open,High,Low,Close,Adj Close,Volume
2010-01-04,50.20000076293945,50.45000076293945,47.0,48.849998474121094,48.849998474121094,142449
2010-01-05,49.900001525878906,50.04999923706055,47.0,48.0,48.0,129173
2010-01-06,49.70000076293945,49.70000076293945,45.650001525878906,46.0,46.0,219352
2010-01-07,46.25,48.29999923706055,46.25,47.20000076293945,47.20000076293945,169200
2010-01-08,48.0,49.04999923706055,44.849998474121094,48.95000076293945,48.95000076293945,411657
2010-01-11,47.900001525878906,49.900001525878906,47.0,48.900001525878906,48.900001525878906,55131
2010-01-12,47.0,47.849998474121094,46.5,46.5,46.5,26019
2010-01-13,44.25,45.29999923706055,44.20000076293945,44.25,44.25,78806
2010-01-14,46.25,46.25,42.04999923706055,42.099998474121094,42.099998474121094,42595
2010-01-15,41.79999923706055,44.20000076293945,41.79999923706055,44.20000076293945,44.20000076293945,35269
2010-01-18,46.25,46.400001525878906,45.0,46.400001525878906,46.400001525878906,52269
2010-01-19,48.599998474121094,48.70000076293945,44.099998474121094,44.099998474121094,44.099998474121094,62163
2010-01-20,42.0,44.0,41.900001525878906,41.900001525878906,41.900001525878906,16239
2010-01-21,39.849998474121094,39.849998474121094,39.849998474121094,39.849998474121094,39.849998474121094,6351
2010-01-22,37.900001525878906,37.900001525878906,37.900001525878906,37.900001525878906,37.900001525878906,13096
2010-01-25,36.04999923706055,36.04999923706055,36.04999923706055,36.04999923706055,36.04999923706055,2686
2010-01-27,34.25,34.25,34.25,34.25,34.25,40680
2010-01-28,32.650001525878906,35.95000076293945,32.54999923706055,32.650001525878906,32.650001525878906,38199
2010-01-29,32.45000076293945,33.849998474121094,31.100000381469727,33.45000076293945,33.45000076293945,28874
2010-02-01,33.099998474121094,35.099998474121094,31.950000762939453,32.54999923706055,32.54999923706055,30157
2010-02-02,34.099998474121094,34.099998474121094,31.5,32.0,32.0,8623
2010-02-03,31.649999618530273,32.5,30.450000762939453,30.799999237060547,30.799999237060547,22417
2010-02-04,30.799999237060547,30.799999237060547,29.399999618530273,29.549999237060547,29.549999237060547,81159
2010-02-05,30.0,30.0,28.100000381469727,28.549999237060547,28.549999237060547,17665
2010-02-08,28.100000381469727,29.75,28.100000381469727,28.25,28.25,12935
2010-02-09,28.75,29.649999618530273,28.5,28.850000381469727,28.850000381469727,414125
2010-02-10,29.200000762939453,30.0,28.25,28.75,28.75,14816
2010-02-11,27.950000762939453,29.299999237060547,27.350000381469727,27.350000381469727,27.350000381469727,38656
2010-02-15,28.5,28.700000762939453,26.0,26.0,26.0,98579
2010-02-16,25.899999618530273,25.899999618530273,24.75,24.75,24.75,76428
2010-02-17,25.399999618530273,25.950000762939453,23.549999237060547,25.950000762939453,25.950000762939453,150763
2010-02-18,26.399999618530273,26.399999618530273,24.700000762939453,24.700000762939453,24.700000762939453,66222
2010-02-19,23.600000381469727,25.200000762939453,23.5,23.5,23.5,156068
2010-02-22,23.899999618530273,24.0,22.350000381469727,22.350000381469727,22.350000381469727,85908
2010-02-23,21.899999618530273,22.75,21.25,21.25,21.25,62387
2010-02-24,21.0,21.5,20.200000762939453,21.399999618530273,21.399999618530273,59113
2010-02-25,21.399999618530273,22.149999618530273,21.200000762939453,21.399999618530273,21.399999618530273,11415
2010-02-26,21.5,21.700000762939453,20.350000381469727,20.5,20.5,143388
2010-03-02,20.049999237060547,21.5,19.5,19.5,19.5,367032
2010-03-03,19.899999618530273,20.450000762939453,18.549999237060547,19.0,19.0,808570
2010-03-04,19.5,19.950000762939453,19.149999618530273,19.950000762939453,19.950000762939453,170650
2010-03-05,20.899999618530273,20.899999618530273,20.899999618530273,20.899999618530273,20.899999618530273,53777
2010-03-08,21.899999618530273,21.899999618530273,21.899999618530273,21.899999618530273,21.899999618530273,10925
2010-03-09,22.950000762939453,22.950000762939453,21.899999618530273,22.950000762939453,22.950000762939453,721423
2010-03-10,24.049999237060547,24.049999237060547,23.5,24.049999237060547,24.049999237060547,119828
2010-03-11,25.25,25.25,24.25,24.649999618530273,24.649999618530273,305093
2010-03-12,25.100000381469727,25.100000381469727,23.450000762939453,23.450000762939453,23.450000762939453,113202
2010-03-15,22.350000381469727,23.0,22.299999237060547,22.299999237060547,22.299999237060547,68135
2010-03-16,21.399999618530273,22.25,21.200000762939453,21.350000381469727,21.350000381469727,162939
2010-03-17,20.600000381469727,22.25,20.600000381469727,21.399999618530273,21.399999618530273,52082
2010-03-18,21.25,21.700000762939453,20.350000381469727,20.850000381469727,20.850000381469727,113228
2010-03-19,21.399999618530273,21.850000381469727,20.950000762939453,21.850000381469727,21.850000381469727,100748
2010-03-22,22.0,22.0,21.0,21.149999618530273,21.149999618530273,46534
2010-03-23,21.049999237060547,21.299999237060547,20.450000762939453,20.75,20.75,31040
2010-03-25,20.700000762939453,20.850000381469727,20.399999618530273,20.649999618530273,20.649999618530273,16760
2010-03-26,20.799999237060547,21.450000762939453,20.600000381469727,21.25,21.25,79516
2010-03-29,21.0,22.100000381469727,20.549999237060547,20.899999618530273,20.899999618530273,29618
2010-03-30,21.149999618530273,21.5,20.899999618530273,21.049999237060547,21.049999237060547,16325
2010-03-31,21.350000381469727,22.100000381469727,20.799999237060547,21.700000762939453,21.700000762939453,75258
2010-04-01,22.0,22.5,21.5,21.799999237060547,21.799999237060547,37354
2010-04-05,21.899999618530273,22.850000381469727,21.899999618530273,22.549999237060547,22.549999237060547,80256
2010-04-06,22.950000762939453,23.649999618530273,22.75,23.649999618530273,23.649999618530273,207208
2010-04-07,24.399999618530273,24.799999237060547,24.049999237060547,24.799999237060547,24.799999237060547,110908
2010-04-08,26.0,26.0,24.799999237060547,26.0,26.0,600199
2010-04-09,27.0,27.299999237060547,26.149999618530273,26.299999237060547,26.299999237060547,710597
2010-04-12,26.25,26.299999237060547,25.0,25.0,25.0,77253
2010-04-13,24.350000381469727,24.350000381469727,23.799999237060547,23.799999237060547,23.799999237060547,93905
2010-04-15,23.799999237060547,23.799999237060547,22.649999618530273,22.649999618530273,22.649999618530273,189651
2010-04-16,22.649999618530273,23.0,21.549999237060547,21.549999237060547,21.549999237060547,172015
2010-04-19,21.100000381469727,21.850000381469727,20.799999237060547,21.5,21.5,39706
2010-04-20,22.0,22.0,20.600000381469727,21.0,21.0,52757
2010-04-21,21.899999618530273,21.899999618530273,21.0,21.399999618530273,21.399999618530273,47746
2010-04-22,21.899999618530273,22.0,21.299999237060547,21.899999618530273,21.899999618530273,65118
2010-04-23,21.600000381469727,22.0,21.399999618530273,21.799999237060547,21.799999237060547,33551
2010-04-26,22.399999618530273,22.75,21.450000762939453,22.200000762939453,22.200000762939453,38997
2010-04-27,21.75,22.899999618530273,21.549999237060547,22.0,22.0,37667
2010-04-28,23.049999237060547,23.049999237060547,21.149999618530273,21.549999237060547,21.549999237060547,30394
2010-04-29,22.549999237060547,22.549999237060547,21.200000762939453,21.5,21.5,26030
2010-04-30,21.899999618530273,21.950000762939453,21.200000762939453,21.549999237060547,21.549999237060547,22353
2010-05-03,21.350000381469727,21.700000762939453,21.100000381469727,21.450000762939453,21.450000762939453,12062
2010-05-04,21.549999237060547,21.700000762939453,20.5,20.549999237060547,20.549999237060547,33756
2010-05-05,20.25,20.700000762939453,19.549999237060547,20.450000762939453,20.450000762939453,31328
2010-05-06,20.5,21.200000762939453,20.5,20.899999618530273,20.899999618530273,23750
2010-05-07,20.399999618530273,20.950000762939453,20.0,20.600000381469727,20.600000381469727,33353
2010-05-10,20.5,21.100000381469727,20.25,20.75,20.75,17226
2010-05-11,21.200000762939453,21.75,21.200000762939453,21.700000762939453,21.700000762939453,23932
2010-05-12,21.25,21.600000381469727,21.0,21.100000381469727,21.100000381469727,23183
2010-05-13,21.600000381469727,21.600000381469727,20.799999237060547,20.899999618530273,20.899999618530273,22359
2010-05-14,20.5,20.899999618530273,20.299999237060547,20.350000381469727,20.350000381469727,15402
2010-05-17,20.600000381469727,20.600000381469727,20.0,20.399999618530273,20.399999618530273,12773
2010-05-18,20.5,20.5,20.0,20.100000381469727,20.100000381469727,15070
2010-05-19,20.100000381469727,20.25,19.600000381469727,19.700000762939453,19.700000762939453,14997
2010-05-20,19.549999237060547,19.600000381469727,19.149999618530273,19.200000762939453,19.200000762939453,20528
2010-05-21,19.0,19.450000762939453,18.649999618530273,19.25,19.25,15000
2010-05-24,19.700000762939453,19.700000762939453,19.200000762939453,19.200000762939453,19.200000762939453,11854
2010-05-25,19.25,19.299999237060547,18.700000762939453,18.75,18.75,5598
2010-05-26,19.0,19.0,18.0,18.350000381469727,18.350000381469727,22746
2010-05-27,18.049999237060547,18.75,18.049999237060547,18.5,18.5,12009
2010-05-28,18.700000762939453,19.299999237060547,18.5,19.25,19.25,15038
2010-05-31,19.0,19.950000762939453,18.799999237060547,19.5,19.5,16768
2010-06-01,19.149999618530273,19.799999237060547,19.0,19.149999618530273,19.149999618530273,20635
2010-06-02,18.899999618530273,19.5,18.5,19.350000381469727,19.350000381469727,10541
2010-06-03,19.25,19.75,19.0,19.149999618530273,19.149999618530273,11114
2010-06-04,19.399999618530273,19.399999618530273,18.450000762939453,18.600000381469727,18.600000381469727,44307
2010-06-07,18.5,18.799999237060547,18.399999618530273,18.450000762939453,18.450000762939453,22927
2010-06-08,18.649999618530273,18.950000762939453,18.350000381469727,18.450000762939453,18.450000762939453,33024
2010-06-09,18.75,18.75,18.350000381469727,18.350000381469727,18.350000381469727,18869
2010-06-10,18.100000381469727,18.649999618530273,18.100000381469727,18.450000762939453,18.450000762939453,15877
2010-06-11,18.5,19.0,18.0,18.5,18.5,53850
2010-06-14,18.5,19.0,18.149999618530273,18.200000762939453,18.200000762939453,32321
2010-06-15,18.049999237060547,18.649999618530273,18.049999237060547,18.350000381469727,18.350000381469727,105786
2010-06-16,18.399999618530273,18.5,18.25,18.350000381469727,18.350000381469727,32833
2010-06-17,18.200000762939453,18.5,17.899999618530273,18.0,18.0,107792
2010-06-18,18.049999237060547,18.25,17.950000762939453,18.0,18.0,24667
2010-06-21,17.899999618530273,18.149999618530273,17.850000381469727,18.0,18.0,24173
2010-06-22,18.350000381469727,18.649999618530273,18.0,18.100000381469727,18.100000381469727,91170
2010-06-23,18.0,18.299999237060547,17.799999237060547,17.950000762939453,17.950000762939453,53535
2010-06-24,18.149999618530273,18.299999237060547,17.799999237060547,17.899999618530273,17.899999618530273,42637
2010-06-25,18.0,18.0,17.799999237060547,17.850000381469727,17.850000381469727,20427
2010-06-28,18.0,18.100000381469727,17.899999618530273,17.950000762939453,17.950000762939453,13927
2010-06-29,18.0,18.0,17.700000762939453,17.850000381469727,17.850000381469727,22019
2010-06-30,17.600000381469727,18.100000381469727,17.600000381469727,18.0,18.0,19626
2010-07-01,17.649999618530273,18.0,17.649999618530273,17.899999618530273,17.899999618530273,12232
2010-07-02,18.0,18.75,17.899999618530273,17.899999618530273,17.899999618530273,314275
2010-07-05,18.0,18.149999618530273,17.899999618530273,18.0,18.0,48852
2010-07-06,18.0,18.0,17.899999618530273,17.950000762939453,17.950000762939453,89253
2010-07-07,18.0,18.100000381469727,17.75,17.799999237060547,17.799999237060547,104933
2010-07-08,18.0,18.0,17.799999237060547,18.0,18.0,55344
2010-07-09,18.0,18.049999237060547,17.799999237060547,17.950000762939453,17.950000762939453,43435
2010-07-12,17.600000381469727,18.200000762939453,17.399999618530273,17.799999237060547,17.799999237060547,81430
2010-07-13,17.899999618530273,18.5,17.700000762939453,17.899999618530273,17.899999618530273,122333
2010-07-14,17.899999618530273,18.049999237060547,17.350000381469727,17.399999618530273,17.399999618530273,106633
2010-07-15,17.700000762939453,18.0,17.549999237060547,17.649999618530273,17.649999618530273,69408
2010-07-16,17.899999618530273,18.0,17.350000381469727,17.600000381469727,17.600000381469727,27175
2010-07-19,17.549999237060547,17.899999618530273,17.5,17.799999237060547,17.799999237060547,29279
2010-07-20,17.899999618530273,17.899999618530273,17.549999237060547,17.600000381469727,17.600000381469727,14853
2010-07-21,17.899999618530273,17.899999618530273,17.600000381469727,17.700000762939453,17.700000762939453,27768
2010-07-22,17.600000381469727,17.850000381469727,17.600000381469727,17.75,17.75,26829
2010-07-23,17.649999618530273,17.899999618530273,17.5,17.700000762939453,17.700000762939453,21311
2010-07-26,17.5,17.75,17.350000381469727,17.399999618530273,17.399999618530273,45168
2010-07-27,17.049999237060547,17.5,17.049999237060547,17.200000762939453,17.200000762939453,10911
2010-07-28,17.350000381469727,17.350000381469727,17.100000381469727,17.200000762939453,17.200000762939453,18418
2010-07-29,17.149999618530273,17.299999237060547,16.799999237060547,16.899999618530273,16.899999618530273,21239
2010-07-30,17.0,17.600000381469727,16.899999618530273,17.100000381469727,17.100000381469727,31539
2010-08-02,17.5,17.5,16.75,17.100000381469727,17.100000381469727,45156
2010-08-03,17.399999618530273,18.100000381469727,16.950000762939453,17.0,17.0,244263
2010-08-04,17.25,17.75,16.700000762939453,16.799999237060547,16.799999237060547,153369
2010-08-05,17.25,17.25,16.049999237060547,16.200000762939453,16.200000762939453,159414
2010-08-06,16.399999618530273,16.5,15.899999618530273,15.949999809265137,15.949999809265137,265889
2010-08-09,16.100000381469727,16.200000762939453,15.899999618530273,16.049999237060547,16.049999237060547,60920
2010-08-10,15.850000381469727,16.149999618530273,15.850000381469727,15.949999809265137,15.949999809265137,38939
2010-08-11,16.0,16.149999618530273,15.75,15.850000381469727,15.850000381469727,90314
2010-08-12,15.800000190734863,16.5,15.600000381469727,15.800000190734863,15.800000190734863,74722
2010-08-13,16.0,16.049999237060547,15.75,15.800000190734863,15.800000190734863,54605
2010-08-16,15.800000190734863,15.949999809265137,15.600000381469727,15.600000381469727,15.600000381469727,93297
2010-08-17,15.949999809265137,15.949999809265137,15.300000190734863,15.350000381469727,15.350000381469727,68882
2010-08-18,15.600000381469727,15.600000381469727,15.25,15.350000381469727,15.350000381469727,55000
2010-08-19,15.149999618530273,15.550000190734863,15.149999618530273,15.350000381469727,15.350000381469727,23895
2010-08-20,15.199999809265137,15.350000381469727,14.899999618530273,15.100000381469727,15.100000381469727,102194
2010-08-23,15.449999809265137,16.450000762939453,15.100000381469727,16.25,16.25,331675
2010-08-24,16.5,16.5,15.649999618530273,15.699999809265137,15.699999809265137,56407
2010-08-25,15.800000190734863,15.800000190734863,15.050000190734863,15.149999618530273,15.149999618530273,42416
2010-08-26,15.5,15.699999809265137,15.100000381469727,15.25,15.25,14542
2010-08-27,15.899999618530273,16.75,15.699999809265137,15.899999618530273,15.899999618530273,622641
2010-08-30,16.700000762939453,16.950000762939453,15.850000381469727,16.0,16.0,144892
2010-08-31,15.899999618530273,16.100000381469727,15.600000381469727,15.699999809265137,15.699999809265137,73355
2010-09-01,15.850000381469727,16.149999618530273,15.699999809265137,15.75,15.75,50842
2010-09-02,15.850000381469727,15.949999809265137,15.550000190734863,15.649999618530273,15.649999618530273,25173
2010-09-03,15.699999809265137,15.850000381469727,15.600000381469727,15.649999618530273,15.649999618530273,31996
2010-09-06,15.699999809265137,16.149999618530273,15.550000190734863,15.600000381469727,15.600000381469727,123343
2010-09-07,15.600000381469727,17.5,15.600000381469727,16.649999618530273,16.649999618530273,716498
2010-09-08,16.899999618530273,18.200000762939453,16.350000381469727,16.549999237060547,16.549999237060547,1093510
2010-09-09,16.799999237060547,17.200000762939453,16.5,16.649999618530273,16.649999618530273,246011
2010-09-13,16.899999618530273,17.0,16.549999237060547,16.850000381469727,16.850000381469727,169241
2010-09-14,18.399999618530273,20.200000762939453,18.049999237060547,20.200000762939453,20.200000762939453,2394810
2010-09-15,21.0,23.149999618530273,20.700000762939453,21.299999237060547,21.299999237060547,3483938
2010-09-16,21.899999618530273,21.899999618530273,19.399999618530273,19.799999237060547,19.799999237060547,662578
2010-09-17,20.0,20.799999237060547,19.75,20.0,20.0,361427
2010-09-20,20.350000381469727,20.399999618530273,19.049999237060547,19.200000762939453,19.200000762939453,198463
2010-09-21,19.25,20.149999618530273,18.350000381469727,19.100000381469727,19.100000381469727,684033
2010-09-22,19.600000381469727,19.600000381469727,18.5,18.700000762939453,18.700000762939453,112942
2010-09-23,18.899999618530273,19.850000381469727,18.549999237060547,19.049999237060547,19.049999237060547,242411
2010-09-24,19.100000381469727,19.350000381469727,18.75,18.899999618530273,18.899999618530273,109817
2010-09-27,19.200000762939453,19.649999618530273,18.799999237060547,18.850000381469727,18.850000381469727,114762
2010-09-28,19.049999237060547,19.450000762939453,18.5,19.0,19.0,232871
2010-09-29,21.100000381469727,22.799999237060547,20.25,22.799999237060547,22.799999237060547,2995066
2010-09-30,24.600000381469727,24.850000381469727,22.450000762939453,22.75,22.75,1770405
2010-10-01,23.0,23.0,21.600000381469727,21.75,21.75,460373
2010-10-04,22.0,22.100000381469727,20.899999618530273,21.100000381469727,21.100000381469727,143603
2010-10-05,21.100000381469727,21.899999618530273,20.600000381469727,20.700000762939453,20.700000762939453,221726
2010-10-06,21.100000381469727,21.25,20.5,20.799999237060547,20.799999237060547,249433
2010-10-07,21.100000381469727,21.799999237060547,20.649999618530273,21.200000762939453,21.200000762939453,384086
2010-10-08,22.100000381469727,22.899999618530273,21.5,21.75,21.75,676908
2010-10-11,22.100000381469727,22.149999618530273,21.399999618530273,21.549999237060547,21.549999237060547,124429
2010-10-12,21.25,21.600000381469727,20.799999237060547,20.950000762939453,20.950000762939453,86562
2010-10-13,20.950000762939453,21.700000762939453,20.600000381469727,20.899999618530273,20.899999618530273,152737
2010-10-14,21.450000762939453,21.450000762939453,20.399999618530273,20.549999237060547,20.549999237060547,105439
2010-10-15,20.200000762939453,20.899999618530273,20.100000381469727,20.25,20.25,101213
2010-10-18,20.149999618530273,20.5,20.0,20.049999237060547,20.049999237060547,90512
2010-10-19,20.299999237060547,20.700000762939453,19.600000381469727,19.799999237060547,19.799999237060547,126449
2010-10-20,19.950000762939453,20.100000381469727,19.25,19.450000762939453,19.450000762939453,129101
2010-10-21,19.799999237060547,20.0,19.450000762939453,19.600000381469727,19.600000381469727,132026
2010-10-22,20.0,20.149999618530273,19.600000381469727,19.75,19.75,95669
2010-10-25,19.700000762939453,20.600000381469727,19.700000762939453,19.899999618530273,19.899999618530273,115531
2010-10-26,20.0,20.450000762939453,19.75,19.799999237060547,19.799999237060547,125797
2010-10-27,20.5,20.700000762939453,19.899999618530273,20.100000381469727,20.100000381469727,184101
2010-10-28,20.100000381469727,20.600000381469727,20.0,20.100000381469727,20.100000381469727,124153
2010-10-29,20.149999618530273,20.25,19.549999237060547,19.75,19.75,124016
2010-11-01,20.0,20.850000381469727,19.75,19.950000762939453,19.950000762939453,13215
2010-11-02,19.700000762939453,20.200000762939453,19.700000762939453,20.049999237060547,20.049999237060547,97014
2010-11-03,19.899999618530273,20.200000762939453,19.700000762939453,19.799999237060547,19.799999237060547,46037
2010-11-04,19.850000381469727,20.100000381469727,19.700000762939453,19.75,19.75,47637
2010-11-08,20.899999618530273,21.100000381469727,20.200000762939453,20.75,20.75,88539
2010-11-09,20.600000381469727,20.950000762939453,20.25,20.5,20.5,86061
2010-11-10,20.0,20.850000381469727,20.0,20.299999237060547,20.299999237060547,40436
2010-11-11,20.600000381469727,21.450000762939453,20.25,20.399999618530273,20.399999618530273,346772
2010-11-12,20.100000381469727,20.450000762939453,19.25,19.450000762939453,19.450000762939453,146541
2010-11-15,19.450000762939453,19.75,19.200000762939453,19.299999237060547,19.299999237060547,56464
2010-11-16,19.200000762939453,19.700000762939453,18.75,18.850000381469727,18.850000381469727,67211
2010-11-18,19.0,19.149999618530273,18.600000381469727,18.75,18.75,94187
2010-11-19,18.600000381469727,18.799999237060547,18.049999237060547,18.350000381469727,18.350000381469727,78962
2010-11-22,19.0,19.700000762939453,18.549999237060547,19.350000381469727,19.350000381469727,95716
2010-11-23,18.700000762939453,19.350000381469727,18.399999618530273,19.049999237060547,19.049999237060547,90755
2010-11-24,18.899999618530273,19.0,18.549999237060547,18.600000381469727,18.600000381469727,31087
2010-11-25,18.5,18.600000381469727,18.350000381469727,18.5,18.5,40907
2010-11-26,18.399999618530273,18.600000381469727,17.100000381469727,17.549999237060547,17.549999237060547,98386
2010-11-29,17.600000381469727,17.799999237060547,17.200000762939453,17.399999618530273,17.399999618530273,29567
2010-11-30,17.399999618530273,18.200000762939453,17.200000762939453,17.549999237060547,17.549999237060547,50326
2010-12-01,17.549999237060547,17.75,17.25,17.649999618530273,17.649999618530273,48462
2010-12-02,17.950000762939453,20.399999618530273,17.75,19.799999237060547,19.799999237060547,185337
2010-12-03,20.399999618530273,21.0,19.100000381469727,19.399999618530273,19.399999618530273,123198
2010-12-06,19.899999618530273,19.899999618530273,18.549999237060547,18.700000762939453,18.700000762939453,48943
2010-12-07,18.850000381469727,19.049999237060547,18.0,18.100000381469727,18.100000381469727,59740
2010-12-08,18.049999237060547,18.299999237060547,18.0,18.149999618530273,18.149999618530273,21097
2010-12-09,18.0,18.200000762939453,16.899999618530273,17.0,17.0,61590
2010-12-10,17.899999618530273,17.899999618530273,17.0,17.700000762939453,17.700000762939453,341587
2010-12-13,18.0,20.0,18.0,19.5,19.5,248511
2010-12-14,19.899999618530273,23.399999618530273,19.899999618530273,23.399999618530273,23.399999618530273,1109441
2010-12-15,24.200000762939453,25.049999237060547,21.5,22.200000762939453,22.200000762939453,1703636
2010-12-16,22.299999237060547,23.5,21.5,23.200000762939453,23.200000762939453,329868
2010-12-20,23.149999618530273,23.149999618530273,21.549999237060547,21.700000762939453,21.700000762939453,320294
2010-12-21,22.0,22.0,20.299999237060547,20.649999618530273,20.649999618530273,223173
2010-12-22,20.700000762939453,21.649999618530273,20.5,20.600000381469727,20.600000381469727,111970
2010-12-23,20.700000762939453,21.25,20.549999237060547,20.799999237060547,20.799999237060547,90919
2010-12-24,20.200000762939453,20.75,20.0,20.149999618530273,20.149999618530273,33521
2010-12-27,20.299999237060547,20.75,19.600000381469727,19.75,19.75,32420
2010-12-28,19.549999237060547,20.0,19.5,19.799999237060547,19.799999237060547,23360
2010-12-29,20.0,20.299999237060547,19.25,19.700000762939453,19.700000762939453,32412
2010-12-30,19.950000762939453,20.25,19.549999237060547,19.75,19.75,24768
