Date,Open,High,Low,Close,Adj Close,Volume
2022-01-03,20.200000762939453,21.200000762939453,20.100000381469727,20.549999237060547,20.549999237060547,38193
2022-01-04,21.649999618530273,22.75,20.549999237060547,21.450000762939453,21.450000762939453,119669
2022-01-05,21.899999618530273,22.200000762939453,21.100000381469727,21.850000381469727,21.850000381469727,92565
2022-01-06,21.5,21.850000381469727,20.850000381469727,21.700000762939453,21.700000762939453,29276
2022-01-07,21.700000762939453,22.350000381469727,20.75,20.850000381469727,20.850000381469727,46671
2022-01-10,21.049999237060547,22.5,20.950000762939453,22.200000762939453,22.200000762939453,113910
2022-01-11,22.399999618530273,22.399999618530273,21.0,21.200000762939453,21.200000762939453,56929
2022-01-12,21.600000381469727,22.25,21.5,21.75,21.75,20758
2022-01-13,22.0,22.0,21.100000381469727,21.200000762939453,21.200000762939453,18184
2022-01-14,21.299999237060547,21.850000381469727,21.100000381469727,21.350000381469727,21.350000381469727,44051
2022-01-17,22.200000762939453,22.200000762939453,21.149999618530273,21.600000381469727,21.600000381469727,12965
2022-01-18,21.75,21.950000762939453,20.899999618530273,21.049999237060547,21.049999237060547,54823
2022-01-19,21.25,21.399999618530273,20.5,20.549999237060547,20.549999237060547,18681
2022-01-20,20.600000381469727,21.0,20.5,20.649999618530273,20.649999618530273,5523
2022-01-21,20.5,20.649999618530273,20.149999618530273,20.299999237060547,20.299999237060547,11323
2022-01-24,19.799999237060547,20.350000381469727,19.0,19.200000762939453,19.200000762939453,60296
2022-01-25,19.049999237060547,19.450000762939453,19.0,19.200000762939453,19.200000762939453,6202
2022-01-27,19.200000762939453,19.850000381469727,18.649999618530273,19.75,19.75,21418
2022-01-28,20.399999618530273,20.5,19.649999618530273,19.850000381469727,19.850000381469727,15550
2022-01-31,19.899999618530273,20.100000381469727,19.5,19.799999237060547,19.799999237060547,7171
2022-02-01,19.700000762939453,20.399999618530273,19.350000381469727,19.5,19.5,8252
2022-02-02,19.799999237060547,21.399999618530273,19.799999237060547,20.75,20.75,26933
2022-02-03,20.950000762939453,21.399999618530273,20.5,20.600000381469727,20.600000381469727,13884
2022-02-04,20.799999237060547,21.0,20.299999237060547,20.549999237060547,20.549999237060547,17666
2022-02-07,20.75,20.799999237060547,19.950000762939453,20.100000381469727,20.100000381469727,6578
2022-02-08,20.0,20.200000762939453,19.399999618530273,19.850000381469727,19.850000381469727,10022
2022-02-09,20.100000381469727,20.450000762939453,19.399999618530273,19.75,19.75,12465
2022-02-10,19.75,20.0,19.350000381469727,19.549999237060547,19.549999237060547,10121
2022-02-11,19.200000762939453,20.0,19.200000762939453,19.649999618530273,19.649999618530273,9028
2022-02-15,18.799999237060547,19.299999237060547,18.299999237060547,18.850000381469727,18.850000381469727,15595
2022-02-16,19.450000762939453,20.75,19.049999237060547,20.200000762939453,20.200000762939453,62236
2022-02-17,20.049999237060547,20.149999618530273,18.950000762939453,19.049999237060547,19.049999237060547,20396
2022-02-18,19.200000762939453,19.25,18.799999237060547,18.850000381469727,18.850000381469727,3192
2022-02-21,18.600000381469727,19.0,18.350000381469727,18.549999237060547,18.549999237060547,12229
2022-02-22,18.350000381469727,18.399999618530273,17.450000762939453,18.0,18.0,18517
2022-02-23,18.399999618530273,18.75,18.149999618530273,18.200000762939453,18.200000762939453,10136
2022-02-24,17.5,17.5,16.600000381469727,16.850000381469727,16.850000381469727,16248
2022-02-25,17.299999237060547,18.200000762939453,17.299999237060547,17.75,17.75,14309
2022-02-28,17.75,18.100000381469727,16.950000762939453,17.700000762939453,17.700000762939453,4041
2022-03-02,17.399999618530273,18.200000762939453,17.399999618530273,17.700000762939453,17.700000762939453,5243
2022-03-03,19.0,19.0,17.5,17.5,17.5,2955
2022-03-04,18.100000381469727,18.100000381469727,17.149999618530273,17.200000762939453,17.200000762939453,1364
2022-03-07,17.200000762939453,17.200000762939453,16.700000762939453,16.899999618530273,16.899999618530273,15343
2022-03-08,16.75,17.200000762939453,16.75,17.0,17.0,8995
2022-03-09,17.399999618530273,17.700000762939453,17.149999618530273,17.549999237060547,17.549999237060547,10350
2022-03-10,17.649999618530273,17.950000762939453,17.350000381469727,17.600000381469727,17.600000381469727,10354
2022-03-11,17.5,18.950000762939453,17.5,18.549999237060547,18.549999237060547,14116
2022-03-14,18.950000762939453,19.299999237060547,18.350000381469727,18.799999237060547,18.799999237060547,23383
2022-03-15,18.450000762939453,19.399999618530273,18.299999237060547,18.549999237060547,18.549999237060547,15130
2022-03-16,19.200000762939453,20.25,19.0,19.600000381469727,19.600000381469727,72515
2022-03-17,20.200000762939453,21.0,19.299999237060547,19.299999237060547,19.299999237060547,11216
2022-03-21,19.450000762939453,19.450000762939453,18.149999618530273,18.25,18.25,77944
2022-03-22,18.899999618530273,18.899999618530273,17.75,17.899999618530273,17.899999618530273,34945
2022-03-23,18.149999618530273,18.149999618530273,17.600000381469727,17.75,17.75,22046
2022-03-24,17.600000381469727,18.5,17.600000381469727,17.649999618530273,17.649999618530273,24342
2022-03-25,17.799999237060547,18.149999618530273,17.600000381469727,17.75,17.75,23357
2022-03-28,17.950000762939453,17.950000762939453,17.399999618530273,17.450000762939453,17.450000762939453,8934
2022-03-29,17.350000381469727,18.049999237060547,16.899999618530273,17.0,17.0,69965
2022-03-30,17.299999237060547,17.75,17.049999237060547,17.149999618530273,17.149999618530273,13168
2022-03-31,17.350000381469727,17.5,16.950000762939453,17.049999237060547,17.049999237060547,20172
2022-04-01,17.25,17.899999618530273,17.200000762939453,17.75,17.75,10178
2022-04-04,18.399999618530273,18.450000762939453,18.100000381469727,18.350000381469727,18.350000381469727,25391
2022-04-05,18.450000762939453,19.25,17.850000381469727,18.850000381469727,18.850000381469727,40335
2022-04-06,18.75,19.399999618530273,18.700000762939453,18.799999237060547,18.799999237060547,24889
2022-04-07,18.899999618530273,21.0,18.899999618530273,20.399999618530273,20.399999618530273,150457
2022-04-08,20.649999618530273,21.0,20.149999618530273,20.350000381469727,20.350000381469727,58238
2022-04-11,20.899999618530273,20.899999618530273,19.399999618530273,19.5,19.5,37194
2022-04-12,19.600000381469727,19.600000381469727,18.950000762939453,19.299999237060547,19.299999237060547,4870
2022-04-13,19.75,20.200000762939453,19.299999237060547,19.799999237060547,19.799999237060547,8299
2022-04-18,19.75,20.700000762939453,18.799999237060547,19.75,19.75,73949
2022-04-19,20.049999237060547,21.850000381469727,19.5,19.700000762939453,19.700000762939453,50324
2022-04-20,20.299999237060547,20.850000381469727,19.700000762939453,20.049999237060547,20.049999237060547,15863
2022-04-21,20.25,21.549999237060547,20.049999237060547,21.049999237060547,21.049999237060547,50705
2022-04-22,20.100000381469727,21.5,20.100000381469727,20.649999618530273,20.649999618530273,14001
2022-04-25,21.399999618530273,21.399999618530273,19.549999237060547,19.799999237060547,19.799999237060547,24215
2022-04-26,20.200000762939453,20.200000762939453,19.450000762939453,19.649999618530273,19.649999618530273,8287
2022-04-27,19.649999618530273,19.649999618530273,19.100000381469727,19.25,19.25,3227
2022-04-28,19.700000762939453,19.799999237060547,18.899999618530273,19.049999237060547,19.049999237060547,10413
2022-04-29,19.350000381469727,19.350000381469727,18.799999237060547,18.899999618530273,18.899999618530273,7582
2022-05-04,18.700000762939453,18.799999237060547,18.200000762939453,18.5,18.5,7155
2022-05-05,18.600000381469727,18.600000381469727,17.899999618530273,18.0,18.0,8017
2022-05-06,18.299999237060547,18.299999237060547,17.649999618530273,17.75,17.75,4464
2022-05-09,17.5,17.549999237060547,16.899999618530273,17.100000381469727,17.100000381469727,12649
2022-05-10,17.399999618530273,17.950000762939453,17.049999237060547,17.200000762939453,17.200000762939453,9479
2022-05-11,17.200000762939453,17.25,16.25,17.149999618530273,17.149999618530273,7886
2022-05-12,16.600000381469727,16.899999618530273,16.299999237060547,16.549999237060547,16.549999237060547,4689
2022-05-13,17.25,17.25,16.549999237060547,16.700000762939453,16.700000762939453,6739
2022-05-16,17.0,17.5,17.0,17.299999237060547,17.299999237060547,5944
2022-05-17,17.899999618530273,17.899999618530273,17.25,17.850000381469727,17.850000381469727,5959
2022-05-18,17.75,18.350000381469727,17.399999618530273,17.799999237060547,17.799999237060547,11363
2022-05-19,17.399999618530273,17.75,17.0,17.25,17.25,3522
2022-05-20,17.399999618530273,17.75,17.299999237060547,17.649999618530273,17.649999618530273,1761
2022-05-23,17.649999618530273,17.850000381469727,17.200000762939453,17.350000381469727,17.350000381469727,4787
2022-05-24,17.100000381469727,17.299999237060547,16.850000381469727,17.049999237060547,17.049999237060547,10681
2022-05-25,17.0,17.0,16.5,16.649999618530273,16.649999618530273,10840
2022-05-26,17.149999618530273,17.149999618530273,16.149999618530273,16.450000762939453,16.450000762939453,1615
2022-05-27,16.850000381469727,17.200000762939453,16.549999237060547,16.899999618530273,16.899999618530273,3201
2022-05-30,17.100000381469727,17.149999618530273,16.850000381469727,17.149999618530273,17.149999618530273,7324
2022-05-31,17.0,17.0,16.0,16.75,16.75,12326
2022-06-01,16.850000381469727,16.950000762939453,16.350000381469727,16.600000381469727,16.600000381469727,3801
2022-06-02,16.649999618530273,16.75,16.350000381469727,16.5,16.5,3926
2022-06-03,16.75,16.75,16.149999618530273,16.149999618530273,16.149999618530273,1365
2022-06-06,16.200000762939453,16.350000381469727,16.149999618530273,16.149999618530273,16.149999618530273,452
2022-06-07,16.5,16.5,16.149999618530273,16.200000762939453,16.200000762939453,435
2022-06-08,16.450000762939453,16.649999618530273,16.149999618530273,16.200000762939453,16.200000762939453,1920
2022-06-09,16.100000381469727,16.450000762939453,15.899999618530273,16.049999237060547,16.049999237060547,13308
2022-06-10,16.350000381469727,16.350000381469727,15.649999618530273,16.200000762939453,16.200000762939453,1661
2022-06-13,15.850000381469727,16.0,15.399999618530273,15.5,15.5,4453
2022-06-14,15.800000190734863,16.450000762939453,15.699999809265137,15.850000381469727,15.850000381469727,9482
2022-06-15,15.850000381469727,16.0,15.649999618530273,15.699999809265137,15.699999809265137,1036
2022-06-16,15.399999618530273,16.049999237060547,15.25,15.550000190734863,15.550000190734863,3346
2022-06-17,15.649999618530273,15.649999618530273,15.050000190734863,15.25,15.25,6995
2022-06-20,15.199999809265137,15.5,14.300000190734863,14.75,14.75,14885
2022-06-21,14.850000381469727,15.149999618530273,14.75,14.850000381469727,14.850000381469727,4578
2022-06-22,16.600000381469727,16.600000381469727,14.649999618530273,14.850000381469727,14.850000381469727,4867
2022-06-23,15.0,15.300000190734863,14.699999809265137,14.850000381469727,14.850000381469727,482
2022-06-24,15.399999618530273,15.75,15.100000381469727,15.449999809265137,15.449999809265137,2776
2022-06-27,15.449999809265137,15.649999618530273,15.300000190734863,15.550000190734863,15.550000190734863,2293
2022-06-28,15.149999618530273,15.699999809265137,14.850000381469727,15.550000190734863,15.550000190734863,1319
2022-06-29,14.5,15.949999809265137,14.5,15.5,15.5,4106
2022-06-30,15.5,15.600000381469727,15.0,15.300000190734863,15.300000190734863,2477
2022-07-01,15.350000381469727,15.800000190734863,15.100000381469727,15.5,15.5,4205
2022-07-04,15.75,15.75,15.199999809265137,15.600000381469727,15.600000381469727,6031
2022-07-05,15.75,17.25,15.5,16.25,16.25,28815
2022-07-06,16.350000381469727,16.5,16.0,16.0,16.0,7370
2022-07-07,16.149999618530273,16.5,16.100000381469727,16.149999618530273,16.149999618530273,2277
2022-07-08,16.25,16.399999618530273,16.049999237060547,16.049999237060547,16.049999237060547,7029
2022-07-11,16.549999237060547,16.549999237060547,15.899999618530273,16.25,16.25,915
2022-07-12,16.25,16.350000381469727,15.550000190734863,16.0,16.0,7726
2022-07-13,16.0,16.5,16.0,16.25,16.25,5827
2022-07-14,16.350000381469727,16.75,15.75,15.850000381469727,15.850000381469727,6987
2022-07-15,15.550000190734863,16.350000381469727,15.5,15.800000190734863,15.800000190734863,5703
2022-07-18,16.0,16.299999237060547,16.0,16.200000762939453,16.200000762939453,360
2022-07-19,16.350000381469727,16.5,16.049999237060547,16.200000762939453,16.200000762939453,9793
2022-07-20,16.450000762939453,16.649999618530273,16.25,16.299999237060547,16.299999237060547,5727
2022-07-21,16.299999237060547,16.299999237060547,16.0,16.049999237060547,16.049999237060547,976
2022-07-22,16.350000381469727,16.350000381469727,16.0,16.100000381469727,16.100000381469727,9228
2022-07-25,16.100000381469727,16.399999618530273,15.800000190734863,15.949999809265137,15.949999809265137,1985
2022-07-26,15.800000190734863,16.100000381469727,15.75,15.75,15.75,1369
2022-07-27,16.049999237060547,16.399999618530273,15.75,16.149999618530273,16.149999618530273,2105
2022-07-28,16.049999237060547,16.25,15.699999809265137,15.850000381469727,15.850000381469727,5733
2022-07-29,16.149999618530273,16.200000762939453,15.800000190734863,15.899999618530273,15.899999618530273,1411
2022-08-01,16.200000762939453,16.799999237060547,16.149999618530273,16.450000762939453,16.450000762939453,20876
2022-08-02,16.5,17.049999237060547,16.5,16.799999237060547,16.799999237060547,2055
2022-08-03,16.850000381469727,17.049999237060547,16.049999237060547,16.399999618530273,16.399999618530273,1713
2022-08-04,16.549999237060547,16.75,16.350000381469727,16.75,16.75,1494
2022-08-05,16.600000381469727,16.649999618530273,16.0,16.399999618530273,16.399999618530273,3196
2022-08-08,16.600000381469727,16.75,16.200000762939453,16.399999618530273,16.399999618530273,4532
2022-08-10,16.100000381469727,17.149999618530273,16.049999237060547,16.600000381469727,16.600000381469727,16476
2022-08-11,16.549999237060547,16.75,16.25,16.25,16.25,777
2022-08-12,16.5,16.5,15.949999809265137,16.299999237060547,16.299999237060547,4823
2022-08-16,16.450000762939453,16.549999237060547,16.049999237060547,16.25,16.25,837
2022-08-17,16.799999237060547,17.0,16.350000381469727,16.649999618530273,16.649999618530273,9830
2022-08-18,17.399999618530273,17.399999618530273,16.25,16.5,16.5,8799
2022-08-19,17.25,17.450000762939453,16.200000762939453,16.649999618530273,16.649999618530273,6035
2022-08-22,16.799999237060547,17.350000381469727,16.049999237060547,16.25,16.25,10986
2022-08-23,16.350000381469727,16.799999237060547,16.200000762939453,16.399999618530273,16.399999618530273,7167
2022-08-24,16.549999237060547,17.200000762939453,15.600000381469727,16.850000381469727,16.850000381469727,41712
2022-08-25,17.399999618530273,17.399999618530273,16.649999618530273,16.899999618530273,16.899999618530273,5075
2022-08-26,17.149999618530273,17.200000762939453,16.899999618530273,17.100000381469727,17.100000381469727,8231
2022-08-29,16.799999237060547,17.350000381469727,16.350000381469727,16.850000381469727,16.850000381469727,6698
2022-08-30,16.799999237060547,17.299999237060547,16.799999237060547,17.0,17.0,525
2022-09-01,17.299999237060547,17.299999237060547,16.799999237060547,16.950000762939453,16.950000762939453,4020
2022-09-02,16.700000762939453,17.350000381469727,16.700000762939453,16.850000381469727,16.850000381469727,7285
2022-09-05,17.200000762939453,17.200000762939453,16.450000762939453,16.75,16.75,6935
2022-09-06,16.5,17.25,16.5,16.75,16.75,5979
2022-09-07,17.25,17.25,16.649999618530273,16.700000762939453,16.700000762939453,2782
2022-09-08,16.950000762939453,18.049999237060547,16.700000762939453,17.75,17.75,40589
2022-09-09,17.850000381469727,18.399999618530273,17.649999618530273,17.75,17.75,16800
2022-09-12,18.200000762939453,18.200000762939453,17.399999618530273,17.399999618530273,17.399999618530273,5389
2022-09-13,17.799999237060547,18.049999237060547,17.350000381469727,17.899999618530273,17.899999618530273,28532
2022-09-14,17.700000762939453,17.700000762939453,17.299999237060547,17.600000381469727,17.600000381469727,6428
2022-09-15,18.049999237060547,18.049999237060547,17.0,17.25,17.25,15899
2022-09-16,16.899999618530273,17.149999618530273,16.5,16.75,16.75,16354
2022-09-19,16.700000762939453,17.299999237060547,16.5,16.5,16.5,1936
2022-09-20,16.399999618530273,16.950000762939453,16.399999618530273,16.75,16.75,621
2022-09-21,16.75,16.75,16.399999618530273,16.600000381469727,16.600000381469727,2695
2022-09-22,16.399999618530273,16.75,16.399999618530273,16.600000381469727,16.600000381469727,1217
2022-09-23,16.549999237060547,16.950000762939453,16.0,16.100000381469727,16.100000381469727,11191
2022-09-26,15.800000190734863,16.450000762939453,15.300000190734863,15.399999618530273,15.399999618530273,5800
2022-09-27,15.149999618530273,16.200000762939453,15.149999618530273,15.75,15.75,1540
2022-09-28,15.449999809265137,16.100000381469727,15.350000381469727,15.800000190734863,15.800000190734863,1757
2022-09-29,15.75,15.949999809265137,15.449999809265137,15.5,15.5,7197
2022-09-30,15.649999618530273,15.800000190734863,15.300000190734863,15.449999809265137,15.449999809265137,3213
2022-10-03,15.199999809265137,15.899999618530273,15.100000381469727,15.25,15.25,11671
2022-10-04,15.550000190734863,15.800000190734863,15.550000190734863,15.75,15.75,100
2022-10-06,15.550000190734863,16.299999237060547,15.300000190734863,16.149999618530273,16.149999618530273,3175
2022-10-07,16.149999618530273,16.25,16.100000381469727,16.25,16.25,1078
2022-10-10,15.649999618530273,16.299999237060547,15.649999618530273,16.049999237060547,16.049999237060547,2827
2022-10-11,16.0,16.200000762939453,16.0,16.200000762939453,16.200000762939453,155
2022-10-12,15.399999618530273,16.450000762939453,15.399999618530273,16.0,16.0,2021
2022-10-13,16.399999618530273,16.399999618530273,15.75,15.850000381469727,15.850000381469727,942
2022-10-14,15.850000381469727,16.100000381469727,15.75,15.800000190734863,15.800000190734863,2334
2022-10-17,15.850000381469727,15.949999809265137,15.449999809265137,15.5,15.5,723
2022-10-18,15.600000381469727,15.75,15.300000190734863,15.550000190734863,15.550000190734863,5331
2022-10-19,15.649999618530273,15.800000190734863,15.5,15.550000190734863,15.550000190734863,2563
2022-10-20,15.5,15.699999809265137,15.25,15.399999618530273,15.399999618530273,3060
2022-10-21,15.699999809265137,15.699999809265137,15.350000381469727,15.5,15.5,4250
2022-10-24,15.699999809265137,15.75,15.399999618530273,15.550000190734863,15.550000190734863,216
2022-10-25,15.25,15.75,15.25,15.449999809265137,15.449999809265137,3109
2022-10-27,15.699999809265137,15.699999809265137,15.399999618530273,15.399999618530273,15.399999618530273,9106
2022-10-28,15.149999618530273,16.100000381469727,15.149999618530273,15.899999618530273,15.899999618530273,6364
2022-10-31,16.049999237060547,16.299999237060547,15.5,15.850000381469727,15.850000381469727,3493
2022-11-01,15.850000381469727,16.149999618530273,15.75,15.899999618530273,15.899999618530273,9339
2022-11-02,15.899999618530273,15.899999618530273,15.550000190734863,15.550000190734863,15.550000190734863,361
2022-11-03,15.5,15.800000190734863,15.5,15.5,15.5,2921
2022-11-04,15.649999618530273,16.200000762939453,15.649999618530273,16.049999237060547,16.049999237060547,3637
2022-11-07,16.25,16.299999237060547,15.75,16.200000762939453,16.200000762939453,3785
2022-11-09,15.699999809265137,16.5,15.5,16.200000762939453,16.200000762939453,13929
2022-11-10,16.399999618530273,16.649999618530273,16.25,16.450000762939453,16.450000762939453,3180
2022-11-11,16.399999618530273,16.75,15.800000190734863,16.100000381469727,16.100000381469727,5870
2022-11-14,16.0,16.100000381469727,15.75,15.800000190734863,15.800000190734863,1829
2022-11-15,15.600000381469727,15.800000190734863,15.5,15.649999618530273,15.649999618530273,9533
2022-11-16,15.550000190734863,15.75,15.399999618530273,15.5,15.5,3759
2022-11-17,16.299999237060547,16.299999237060547,15.399999618530273,15.600000381469727,15.600000381469727,5010
2022-11-18,15.75,15.75,15.399999618530273,15.399999618530273,15.399999618530273,431
2022-11-21,15.350000381469727,15.399999618530273,15.100000381469727,15.25,15.25,4799
2022-11-22,14.899999618530273,15.600000381469727,14.899999618530273,15.300000190734863,15.300000190734863,5708
2022-11-23,15.300000190734863,15.800000190734863,15.100000381469727,15.399999618530273,15.399999618530273,20577
2022-11-24,15.199999809265137,15.550000190734863,15.199999809265137,15.399999618530273,15.399999618530273,451
2022-11-25,15.5,15.800000190734863,15.199999809265137,15.5,15.5,7751
2022-11-28,15.75,15.75,15.300000190734863,15.449999809265137,15.449999809265137,1144
2022-11-29,15.100000381469727,15.75,15.100000381469727,15.5,15.5,7149
2022-11-30,15.850000381469727,16.0,15.300000190734863,15.399999618530273,15.399999618530273,4428
2022-12-01,15.449999809265137,15.600000381469727,14.850000381469727,15.25,15.25,17922
2022-12-02,15.149999618530273,15.350000381469727,15.050000190734863,15.149999618530273,15.149999618530273,18166
2022-12-05,15.149999618530273,15.600000381469727,15.149999618530273,15.350000381469727,15.350000381469727,36601
2022-12-06,15.149999618530273,15.600000381469727,15.149999618530273,15.199999809265137,15.199999809265137,7530
2022-12-07,15.300000190734863,15.5,15.050000190734863,15.199999809265137,15.199999809265137,7035
2022-12-08,15.199999809265137,15.350000381469727,14.800000190734863,15.149999618530273,15.149999618530273,6960
2022-12-09,15.199999809265137,15.350000381469727,15.100000381469727,15.149999618530273,15.149999618530273,5639
2022-12-12,14.75,15.350000381469727,14.75,15.050000190734863,15.050000190734863,6489
2022-12-13,15.0,16.899999618530273,14.850000381469727,16.100000381469727,16.100000381469727,73084
2022-12-14,16.450000762939453,16.5,16.0,16.100000381469727,16.100000381469727,18508
2022-12-15,15.949999809265137,16.200000762939453,15.100000381469727,15.25,15.25,16040
2022-12-16,15.649999618530273,15.649999618530273,15.25,15.350000381469727,15.350000381469727,3829
2022-12-19,15.600000381469727,16.299999237060547,15.25,15.850000381469727,15.850000381469727,74413
2022-12-20,15.850000381469727,17.5,15.850000381469727,16.549999237060547,16.549999237060547,53604
2022-12-21,16.850000381469727,17.049999237060547,15.199999809265137,15.300000190734863,15.300000190734863,56662
2022-12-22,15.449999809265137,15.5,14.800000190734863,15.050000190734863,15.050000190734863,9899
2022-12-23,14.899999618530273,15.0,14.449999809265137,14.5,14.5,18525
2022-12-26,14.699999809265137,15.350000381469727,14.699999809265137,15.100000381469727,15.100000381469727,5159
2022-12-27,15.300000190734863,15.350000381469727,15.0,15.050000190734863,15.050000190734863,5683
2022-12-28,15.550000190734863,15.550000190734863,15.050000190734863,15.25,15.25,9064
2022-12-29,15.0,15.649999618530273,15.0,15.199999809265137,15.199999809265137,13529
2022-12-30,15.25,15.800000190734863,15.100000381469727,15.5,15.5,19962
