Date,Open,High,Low,Close,Adj Close,Volume
2021-01-01,17.399999618530273,17.399999618530273,16.149999618530273,16.200000762939453,16.200000762939453,8788
2021-01-04,16.5,16.649999618530273,16.100000381469727,16.350000381469727,16.350000381469727,20434
2021-01-05,16.100000381469727,16.25,15.550000190734863,15.949999809265137,15.949999809265137,56092
2021-01-06,15.899999618530273,16.149999618530273,15.5,15.5,15.5,13671
2021-01-07,15.899999618530273,16.0,15.5,15.649999618530273,15.649999618530273,16085
2021-01-08,15.699999809265137,16.0,15.550000190734863,15.600000381469727,15.600000381469727,13114
2021-01-11,15.75,15.800000190734863,14.899999618530273,14.899999618530273,14.899999618530273,9757
2021-01-12,14.949999809265137,15.149999618530273,14.850000381469727,14.850000381469727,14.850000381469727,5326
2021-01-13,15.149999618530273,15.25,14.5,14.800000190734863,14.800000190734863,2077
2021-01-14,14.699999809265137,15.149999618530273,14.699999809265137,15.0,15.0,2267
2021-01-15,14.800000190734863,16.75,14.550000190734863,15.699999809265137,15.699999809265137,72446
2021-01-18,16.0,16.0,15.149999618530273,15.5,15.5,9755
2021-01-19,15.350000381469727,15.5,15.25,15.350000381469727,15.350000381469727,9200
2021-01-20,15.75,16.450000762939453,15.699999809265137,15.850000381469727,15.850000381469727,42021
2021-01-21,15.949999809265137,15.949999809265137,15.25,15.300000190734863,15.300000190734863,24736
2021-01-22,15.25,15.399999618530273,14.550000190734863,14.600000381469727,14.600000381469727,4768
2021-01-25,14.699999809265137,14.75,14.699999809265137,14.75,14.75,536
2021-01-27,13.850000381469727,14.800000190734863,13.850000381469727,14.699999809265137,14.699999809265137,3219
2021-01-28,14.5,14.75,14.449999809265137,14.649999618530273,14.649999618530273,554
2021-01-29,14.649999618530273,15.0,14.5,14.699999809265137,14.699999809265137,1812
2021-02-01,14.649999618530273,14.649999618530273,14.5,14.510000228881836,14.510000228881836,1270
2021-02-02,14.850000381469727,14.850000381469727,14.550000190734863,14.699999809265137,14.699999809265137,1115
2021-02-03,14.760000228881836,14.760000228881836,14.550000190734863,14.569999694824219,14.569999694824219,3898
2021-02-04,14.609999656677246,15.4399995803833,14.449999809265137,15.100000381469727,15.100000381469727,10501
2021-02-05,15.260000228881836,15.260000228881836,14.600000381469727,14.789999961853027,14.789999961853027,2760
2021-02-08,14.84000015258789,14.859999656677246,14.600000381469727,14.649999618530273,14.649999618530273,5391
2021-02-09,14.5,14.65999984741211,14.5,14.640000343322754,14.640000343322754,2206
2021-02-10,14.539999961853027,14.770000457763672,14.289999961853027,14.399999618530273,14.399999618530273,3595
2021-02-11,14.449999809265137,14.75,14.449999809265137,14.5600004196167,14.5600004196167,1899
2021-02-12,14.489999771118164,14.710000038146973,14.260000228881836,14.3100004196167,14.3100004196167,10383
2021-02-15,14.390000343322754,14.550000190734863,14.220000267028809,14.3100004196167,14.3100004196167,1701
2021-02-16,14.449999809265137,14.5,14.199999809265137,14.40999984741211,14.40999984741211,764
2021-02-17,14.5,14.5,14.34000015258789,14.34000015258789,14.34000015258789,558
2021-02-18,14.460000038146973,14.460000038146973,14.09000015258789,14.1899995803833,14.1899995803833,2240
2021-02-19,14.510000228881836,14.649999618530273,14.149999618530273,14.149999618530273,14.149999618530273,13663
2021-02-22,14.140000343322754,14.140000343322754,13.850000381469727,14.039999961853027,14.039999961853027,3117
2021-02-23,14.039999961853027,14.15999984741211,13.899999618530273,14.0,14.0,854
2021-02-24,14.25,15.010000228881836,14.069999694824219,14.609999656677246,14.609999656677246,13488
2021-02-25,14.8100004196167,14.8100004196167,14.399999618530273,14.550000190734863,14.550000190734863,41153
2021-02-26,14.34000015258789,14.600000381469727,14.25,14.5,14.5,3734
2021-03-01,14.800000190734863,14.859999656677246,14.34000015258789,14.520000457763672,14.520000457763672,5078
2021-03-02,14.399999618530273,15.649999618530273,14.199999809265137,15.399999618530273,15.399999618530273,40046
2021-03-03,15.449999809265137,18.100000381469727,15.449999809265137,16.510000228881836,16.510000228881836,132823
2021-03-04,16.799999237060547,16.799999237060547,15.899999618530273,15.949999809265137,15.949999809265137,5638
2021-03-05,16.200000762939453,17.3799991607666,15.75,16.8799991607666,16.8799991607666,63913
2021-03-08,17.450000762939453,17.5,16.799999237060547,16.950000762939453,16.950000762939453,30436
2021-03-09,16.860000610351562,20.34000015258789,16.860000610351562,18.690000534057617,18.690000534057617,142679
2021-03-10,19.200000762939453,19.450000762939453,17.75,18.049999237060547,18.049999237060547,56002
2021-03-12,19.0,19.0,16.899999618530273,17.139999389648438,17.139999389648438,36525
2021-03-15,17.25,17.25,16.5,16.5,16.5,12608
2021-03-16,17.25,17.75,16.600000381469727,16.739999771118164,16.739999771118164,7393
2021-03-17,18.0,18.0,16.149999618530273,16.31999969482422,16.31999969482422,29687
2021-03-18,15.300000190734863,16.75,15.300000190734863,15.989999771118164,15.989999771118164,5890
2021-03-19,17.899999618530273,17.899999618530273,15.029999732971191,15.949999809265137,15.949999809265137,8246
2021-03-22,15.199999809265137,16.100000381469727,15.199999809265137,15.789999961853027,15.789999961853027,6022
2021-03-23,16.25,16.25,15.800000190734863,16.059999465942383,16.059999465942383,12598
2021-03-24,15.25,16.0,15.199999809265137,15.210000038146973,15.210000038146973,3495
2021-03-25,15.5,17.649999618530273,15.09000015258789,16.0,16.0,23386
2021-03-26,17.0,17.0,15.550000190734863,16.15999984741211,16.15999984741211,11937
2021-03-30,17.25,17.25,16.239999771118164,16.90999984741211,16.90999984741211,5658
2021-03-31,17.149999618530273,17.299999237060547,16.600000381469727,16.649999618530273,16.649999618530273,4202
2021-04-01,18.0,18.0,15.0,16.700000762939453,16.700000762939453,4444
2021-04-05,16.600000381469727,16.600000381469727,15.699999809265137,16.0,16.0,4312
2021-04-06,16.25,16.25,15.899999618530273,15.949999809265137,15.949999809265137,1962
2021-04-07,16.149999618530273,16.25,15.850000381469727,16.0,16.0,10479
2021-04-08,15.050000190734863,16.200000762939453,15.050000190734863,15.699999809265137,15.699999809265137,3535
2021-04-09,15.600000381469727,16.0,15.600000381469727,15.800000190734863,15.800000190734863,5705
2021-04-12,15.25,15.399999618530273,14.949999809265137,15.0,15.0,2942
2021-04-13,15.199999809265137,15.199999809265137,15.100000381469727,15.100000381469727,15.100000381469727,806
2021-04-15,15.100000381469727,15.300000190734863,14.699999809265137,15.100000381469727,15.100000381469727,3347
2021-04-16,15.0,15.199999809265137,14.550000190734863,14.800000190734863,14.800000190734863,6966
2021-04-19,14.550000190734863,14.649999618530273,14.149999618530273,14.25,14.25,1858
2021-04-20,14.649999618530273,16.600000381469727,14.25,14.25,14.25,5893
2021-04-22,14.300000190734863,14.699999809265137,14.300000190734863,14.649999618530273,14.649999618530273,1742
2021-04-23,14.699999809265137,14.899999618530273,14.699999809265137,14.899999618530273,14.899999618530273,100
2021-04-26,14.899999618530273,14.899999618530273,14.5,14.550000190734863,14.550000190734863,2610
2021-04-27,14.75,15.149999618530273,14.100000381469727,15.0,15.0,3969
2021-04-28,15.300000190734863,15.800000190734863,14.949999809265137,15.100000381469727,15.100000381469727,23029
2021-04-29,15.100000381469727,15.25,14.399999618530273,14.75,14.75,3284
2021-04-30,15.0,16.899999618530273,14.699999809265137,14.699999809265137,14.699999809265137,4586
2021-05-03,14.5,16.600000381469727,14.0,14.829999923706055,14.829999923706055,10166
2021-05-04,14.920000076293945,16.799999237060547,14.5,15.850000381469727,15.850000381469727,21978
2021-05-05,16.850000381469727,16.850000381469727,15.819999694824219,16.09000015258789,16.09000015258789,13555
2021-05-06,16.079999923706055,16.079999923706055,15.300000190734863,15.649999618530273,15.649999618530273,11290
2021-05-07,15.819999694824219,17.06999969482422,15.550000190734863,16.649999618530273,16.649999618530273,36778
2021-05-10,16.989999771118164,17.280000686645508,15.399999618530273,16.709999084472656,16.709999084472656,12274
2021-05-11,16.709999084472656,17.200000762939453,16.350000381469727,16.6200008392334,16.6200008392334,34071
2021-05-12,16.799999237060547,16.81999969482422,16.0,16.219999313354492,16.219999313354492,4792
2021-05-14,16.649999618530273,16.649999618530273,15.75,16.1299991607666,16.1299991607666,5082
2021-05-17,16.59000015258789,18.0,16.049999237060547,16.25,16.25,1500
2021-05-18,16.31999969482422,16.5,16.170000076293945,16.290000915527344,16.290000915527344,12990
2021-05-19,15.899999618530273,16.469999313354492,15.869999885559082,16.15999984741211,16.15999984741211,9222
2021-05-20,17.290000915527344,17.290000915527344,15.75,16.270000457763672,16.270000457763672,18965
2021-05-21,16.530000686645508,16.770000457763672,16.0,16.670000076293945,16.670000076293945,7962
2021-05-24,17.799999237060547,17.799999237060547,16.3799991607666,16.56999969482422,16.56999969482422,13075
2021-05-25,16.770000457763672,16.920000076293945,16.579999923706055,16.700000762939453,16.700000762939453,8650
2021-05-26,16.920000076293945,18.399999618530273,16.729999542236328,17.459999084472656,17.459999084472656,54639
2021-05-27,18.700000762939453,18.700000762939453,17.049999237060547,17.3799991607666,17.3799991607666,40599
2021-05-28,17.5,17.6299991607666,17.0,17.059999465942383,17.059999465942383,14352
2021-05-31,18.579999923706055,19.799999237060547,18.100000381469727,18.479999542236328,18.479999542236328,180255
2021-06-01,18.600000381469727,18.600000381469727,17.399999618530273,17.799999237060547,17.799999237060547,49198
2021-06-02,17.75,19.450000762939453,17.75,18.850000381469727,18.850000381469727,35119
2021-06-03,18.5,19.399999618530273,18.399999618530273,18.75,18.75,24372
2021-06-04,19.0,20.200000762939453,18.25,18.450000762939453,18.450000762939453,49754
2021-06-07,18.350000381469727,18.75,18.200000762939453,18.299999237060547,18.299999237060547,14950
2021-06-08,18.899999618530273,18.899999618530273,18.049999237060547,18.200000762939453,18.200000762939453,34623
2021-06-09,18.5,19.549999237060547,18.0,18.299999237060547,18.299999237060547,97572
2021-06-10,18.450000762939453,19.399999618530273,18.25,18.700000762939453,18.700000762939453,37143
2021-06-11,19.100000381469727,20.399999618530273,18.850000381469727,20.0,20.0,94774
2021-06-14,19.950000762939453,20.200000762939453,19.049999237060547,19.25,19.25,56819
2021-06-15,19.200000762939453,20.850000381469727,19.0,20.200000762939453,20.200000762939453,74953
2021-06-16,20.5,20.5,19.200000762939453,19.649999618530273,19.649999618530273,39840
2021-06-17,20.100000381469727,20.100000381469727,19.149999618530273,19.299999237060547,19.299999237060547,28721
2021-06-18,19.25,19.649999618530273,15.5,18.950000762939453,18.950000762939453,51388
2021-06-21,18.350000381469727,19.149999618530273,17.799999237060547,18.799999237060547,18.799999237060547,12822
2021-06-22,19.0,19.600000381469727,18.899999618530273,18.950000762939453,18.950000762939453,37981
2021-06-23,19.100000381469727,19.75,18.799999237060547,18.950000762939453,18.950000762939453,24927
2021-06-24,19.25,19.299999237060547,18.600000381469727,18.75,18.75,18856
2021-06-25,18.649999618530273,22.25,18.600000381469727,20.5,20.5,332441
2021-06-28,20.950000762939453,21.25,19.799999237060547,19.950000762939453,19.950000762939453,107154
2021-06-29,20.399999618530273,20.399999618530273,19.649999618530273,19.75,19.75,11758
2021-06-30,20.25,20.649999618530273,19.700000762939453,20.299999237060547,20.299999237060547,42249
2021-07-01,20.299999237060547,21.200000762939453,20.049999237060547,20.200000762939453,20.200000762939453,18199
2021-07-02,20.950000762939453,20.950000762939453,19.25,20.0,20.0,39765
2021-07-05,20.450000762939453,21.649999618530273,19.799999237060547,20.75,20.75,83764
2021-07-06,20.950000762939453,21.600000381469727,20.399999618530273,20.549999237060547,20.549999237060547,83542
2021-07-07,20.950000762939453,24.649999618530273,20.950000762939453,24.649999618530273,24.649999618530273,558792
2021-07-08,25.299999237060547,25.299999237060547,22.600000381469727,22.899999618530273,22.899999618530273,170669
2021-07-09,21.100000381469727,23.799999237060547,21.100000381469727,23.0,23.0,67853
2021-07-12,23.450000762939453,23.700000762939453,22.399999618530273,22.5,22.5,8522
2021-07-13,22.799999237060547,23.049999237060547,21.600000381469727,21.850000381469727,21.850000381469727,31345
2021-07-14,21.850000381469727,22.350000381469727,21.350000381469727,21.899999618530273,21.899999618530273,27201
2021-07-15,22.200000762939453,22.700000762939453,20.600000381469727,20.75,20.75,170677
2021-07-16,21.25,21.700000762939453,20.549999237060547,20.75,20.75,32408
2021-07-19,20.850000381469727,21.200000762939453,19.950000762939453,20.149999618530273,20.149999618530273,32000
2021-07-20,20.850000381469727,20.899999618530273,18.799999237060547,20.700000762939453,20.700000762939453,70552
2021-07-22,20.850000381469727,21.450000762939453,20.649999618530273,21.049999237060547,21.049999237060547,42464
2021-07-23,21.200000762939453,21.799999237060547,20.549999237060547,20.600000381469727,20.600000381469727,27434
2021-07-26,20.700000762939453,20.799999237060547,20.0,20.200000762939453,20.200000762939453,29529
2021-07-27,20.399999618530273,23.899999618530273,19.850000381469727,22.149999618530273,22.149999618530273,209576
2021-07-28,22.25,23.399999618530273,21.899999618530273,23.0,23.0,69605
2021-07-29,23.25,24.0,22.600000381469727,22.799999237060547,22.799999237060547,90592
2021-07-30,22.600000381469727,25.75,22.399999618530273,24.75,24.75,289312
2021-08-02,27.600000381469727,27.600000381469727,25.100000381469727,25.5,25.5,248085
2021-08-03,25.850000381469727,25.850000381469727,24.25,24.399999618530273,24.399999618530273,62281
2021-08-04,24.899999618530273,24.950000762939453,22.799999237060547,23.0,23.0,71109
2021-08-05,22.799999237060547,24.100000381469727,21.549999237060547,22.649999618530273,22.649999618530273,52525
2021-08-06,22.950000762939453,23.399999618530273,22.5,22.75,22.75,22189
2021-08-09,22.75,23.5,22.399999618530273,22.700000762939453,22.700000762939453,30601
2021-08-10,22.700000762939453,22.799999237060547,20.600000381469727,21.100000381469727,21.100000381469727,91444
2021-08-11,20.100000381469727,21.100000381469727,19.0,20.399999618530273,20.399999618530273,41041
2021-08-12,20.75,21.649999618530273,20.649999618530273,20.899999618530273,20.899999618530273,30202
2021-08-13,21.100000381469727,22.399999618530273,21.049999237060547,21.25,21.25,38610
2021-08-16,20.850000381469727,21.149999618530273,20.149999618530273,20.25,20.25,29974
2021-08-17,20.5,20.75,19.5,19.799999237060547,19.799999237060547,19787
2021-08-18,20.0,20.149999618530273,19.450000762939453,19.600000381469727,19.600000381469727,17778
2021-08-20,19.5,19.549999237060547,17.899999618530273,18.5,18.5,46344
2021-08-23,19.149999618530273,19.5,18.0,18.549999237060547,18.549999237060547,23622
2021-08-24,18.450000762939453,20.399999618530273,18.200000762939453,19.899999618530273,19.899999618530273,19638
2021-08-25,19.899999618530273,20.399999618530273,19.600000381469727,19.899999618530273,19.899999618530273,5249
2021-08-26,19.75,20.200000762939453,19.549999237060547,19.649999618530273,19.649999618530273,24165
2021-08-27,19.600000381469727,19.899999618530273,18.75,18.950000762939453,18.950000762939453,7256
2021-08-30,19.149999618530273,20.299999237060547,19.149999618530273,19.850000381469727,19.850000381469727,20442
2021-08-31,20.0,20.0,19.600000381469727,19.75,19.75,5222
2021-09-01,19.950000762939453,20.549999237060547,19.75,20.049999237060547,20.049999237060547,6865
2021-09-02,20.5,20.5,19.649999618530273,19.799999237060547,19.799999237060547,13865
2021-09-03,20.0,20.049999237060547,19.700000762939453,19.75,19.75,6882
2021-09-06,19.75,19.799999237060547,19.149999618530273,19.5,19.5,4805
2021-09-07,19.549999237060547,19.850000381469727,19.299999237060547,19.5,19.5,3584
2021-09-08,19.450000762939453,19.5,18.950000762939453,19.149999618530273,19.149999618530273,79443
2021-09-09,19.100000381469727,19.350000381469727,19.049999237060547,19.200000762939453,19.200000762939453,4190
2021-09-13,19.350000381469727,19.450000762939453,18.950000762939453,19.200000762939453,19.200000762939453,10745
2021-09-14,19.350000381469727,19.450000762939453,18.299999237060547,18.899999618530273,18.899999618530273,101933
2021-09-15,18.950000762939453,19.25,18.950000762939453,19.200000762939453,19.200000762939453,3826
2021-09-16,19.049999237060547,19.25,18.950000762939453,19.049999237060547,19.049999237060547,12339
2021-09-17,19.049999237060547,19.25,18.5,18.850000381469727,18.850000381469727,14713
2021-09-20,18.899999618530273,18.899999618530273,18.299999237060547,18.5,18.5,8368
2021-09-21,18.350000381469727,18.5,18.350000381469727,18.450000762939453,18.450000762939453,13519
2021-09-22,18.75,19.0,18.549999237060547,18.549999237060547,18.549999237060547,3720
2021-09-23,19.0,19.0,18.200000762939453,18.450000762939453,18.450000762939453,6434
2021-09-24,18.450000762939453,18.700000762939453,17.850000381469727,18.149999618530273,18.149999618530273,10185
2021-09-27,18.299999237060547,18.799999237060547,17.75,18.549999237060547,18.549999237060547,12113
2021-09-28,18.799999237060547,20.25,18.549999237060547,19.5,19.5,46231
2021-09-29,19.850000381469727,19.850000381469727,19.5,19.649999618530273,19.649999618530273,6924
2021-09-30,19.950000762939453,20.450000762939453,19.299999237060547,19.5,19.5,13469
2021-10-01,19.600000381469727,20.0,19.25,19.75,19.75,10085
2021-10-04,20.399999618530273,20.399999618530273,19.350000381469727,19.5,19.5,26208
2021-10-05,19.75,21.0,19.450000762939453,20.5,20.5,47850
2021-10-06,20.75,21.100000381469727,19.299999237060547,19.649999618530273,19.649999618530273,38198
2021-10-07,20.0,20.75,19.799999237060547,20.0,20.0,8714
2021-10-08,20.049999237060547,20.75,19.75,20.299999237060547,20.299999237060547,26627
2021-10-11,20.399999618530273,22.0,20.0,21.299999237060547,21.299999237060547,66927
2021-10-12,21.100000381469727,22.0,21.0,21.799999237060547,21.799999237060547,32755
2021-10-13,21.950000762939453,22.0,21.0,21.25,21.25,11885
2021-10-14,21.450000762939453,21.450000762939453,20.600000381469727,20.950000762939453,20.950000762939453,8429
2021-10-18,20.799999237060547,20.799999237060547,19.899999618530273,20.200000762939453,20.200000762939453,19572
2021-10-19,20.100000381469727,20.299999237060547,19.5,19.700000762939453,19.700000762939453,20197
2021-10-20,19.700000762939453,19.75,19.100000381469727,19.25,19.25,8874
2021-10-21,19.299999237060547,19.899999618530273,19.299999237060547,19.5,19.5,16446
2021-10-22,19.799999237060547,20.0,19.100000381469727,19.399999618530273,19.399999618530273,8654
2021-10-25,19.299999237060547,19.299999237060547,18.700000762939453,19.049999237060547,19.049999237060547,11447
2021-10-26,18.75,19.850000381469727,18.450000762939453,19.200000762939453,19.200000762939453,23427
2021-10-27,19.450000762939453,20.100000381469727,19.399999618530273,19.75,19.75,9755
2021-10-28,19.5,19.5,18.75,18.850000381469727,18.850000381469727,11183
2021-10-29,18.850000381469727,19.450000762939453,18.700000762939453,18.75,18.75,20527
2021-11-01,19.100000381469727,19.200000762939453,18.899999618530273,18.899999618530273,18.899999618530273,6132
2021-11-02,18.950000762939453,19.100000381469727,18.950000762939453,18.950000762939453,18.950000762939453,2316
2021-11-03,19.100000381469727,19.600000381469727,18.899999618530273,18.899999618530273,18.899999618530273,18852
2021-11-04,19.5,19.5,18.75,19.350000381469727,19.350000381469727,1903
2021-11-08,19.049999237060547,19.299999237060547,19.0,19.0,19.0,5675
2021-11-09,19.25,19.299999237060547,19.0,19.149999618530273,19.149999618530273,6666
2021-11-10,19.149999618530273,19.25,18.700000762939453,19.0,19.0,10169
2021-11-11,18.799999237060547,19.399999618530273,18.649999618530273,18.850000381469727,18.850000381469727,8999
2021-11-12,18.950000762939453,22.350000381469727,18.75,21.899999618530273,21.899999618530273,172456
2021-11-15,21.5,21.5,19.600000381469727,20.049999237060547,20.049999237060547,46920
2021-11-16,20.049999237060547,20.100000381469727,19.649999618530273,19.850000381469727,19.850000381469727,17113
2021-11-17,19.799999237060547,21.600000381469727,19.75,20.200000762939453,20.200000762939453,53057
2021-11-18,20.450000762939453,20.5,19.399999618530273,19.950000762939453,19.950000762939453,8182
2021-11-22,21.299999237060547,21.299999237060547,18.799999237060547,19.149999618530273,19.149999618530273,22285
2021-11-23,19.0,19.649999618530273,19.0,19.200000762939453,19.200000762939453,2985
2021-11-24,19.049999237060547,19.600000381469727,19.0,19.149999618530273,19.149999618530273,11914
2021-11-25,19.049999237060547,19.399999618530273,19.049999237060547,19.350000381469727,19.350000381469727,1343
2021-11-26,18.850000381469727,19.450000762939453,18.549999237060547,18.950000762939453,18.950000762939453,26729
2021-11-29,18.450000762939453,19.200000762939453,18.350000381469727,18.75,18.75,10359
2021-11-30,19.100000381469727,19.350000381469727,18.75,18.75,18.75,1095
2021-12-01,18.299999237060547,19.200000762939453,18.299999237060547,18.850000381469727,18.850000381469727,11047
2021-12-02,18.5,19.0,18.5,18.899999618530273,18.899999618530273,5828
2021-12-03,18.850000381469727,19.100000381469727,18.600000381469727,18.649999618530273,18.649999618530273,7586
2021-12-06,18.5,19.049999237060547,18.450000762939453,18.649999618530273,18.649999618530273,6286
2021-12-07,18.799999237060547,19.0,18.649999618530273,18.799999237060547,18.799999237060547,4618
2021-12-08,18.700000762939453,21.049999237060547,18.700000762939453,20.350000381469727,20.350000381469727,58857
2021-12-09,19.100000381469727,21.0,19.100000381469727,20.399999618530273,20.399999618530273,18741
2021-12-10,20.299999237060547,21.100000381469727,20.0,20.549999237060547,20.549999237060547,23619
2021-12-13,20.649999618530273,20.850000381469727,19.850000381469727,19.950000762939453,19.950000762939453,4167
2021-12-14,20.600000381469727,22.049999237060547,20.049999237060547,21.549999237060547,21.549999237060547,46255
2021-12-15,21.100000381469727,21.200000762939453,20.149999618530273,20.299999237060547,20.299999237060547,61524
2021-12-16,20.149999618530273,20.649999618530273,20.0,20.200000762939453,20.200000762939453,8942
2021-12-17,19.950000762939453,19.950000762939453,18.75,19.299999237060547,19.299999237060547,20254
2021-12-20,18.899999618530273,18.899999618530273,17.600000381469727,18.0,18.0,23094
2021-12-21,18.299999237060547,18.799999237060547,18.0,18.399999618530273,18.399999618530273,13071
2021-12-22,18.649999618530273,19.5,18.649999618530273,19.0,19.0,10773
2021-12-23,19.75,19.850000381469727,18.899999618530273,18.950000762939453,18.950000762939453,14415
2021-12-24,19.0,19.0,18.0,18.200000762939453,18.200000762939453,8059
2021-12-27,18.200000762939453,18.75,18.100000381469727,18.5,18.5,18694
2021-12-28,17.799999237060547,19.399999618530273,17.799999237060547,19.200000762939453,19.200000762939453,19592
2021-12-29,19.049999237060547,20.450000762939453,18.899999618530273,19.600000381469727,19.600000381469727,31780
2021-12-30,19.5,21.450000762939453,19.5,20.5,20.5,95788
