Date,Open,High,Low,Close,Adj Close,Volume
2015-01-01,7.400000095367432,7.460000038146973,7.28000020980835,7.349999904632568,7.349999904632568,25875
2015-01-02,7.400000095367432,7.699999809265137,7.360000133514404,7.550000190734863,7.550000190734863,18150
2015-01-05,7.650000095367432,7.650000095367432,7.360000133514404,7.400000095367432,7.400000095367432,6751
2015-01-06,7.329999923706055,7.340000152587891,7.150000095367432,7.150000095367432,7.150000095367432,28276
2015-01-07,7.210000038146973,7.300000190734863,7.050000190734863,7.070000171661377,7.070000171661377,24524
2015-01-08,7.25,7.539999961853027,7.099999904632568,7.289999961853027,7.289999961853027,12878
2015-01-09,7.570000171661377,7.570000171661377,7.260000228881836,7.329999923706055,7.329999923706055,4684
2015-01-12,7.210000038146973,7.300000190734863,7.150000095367432,7.260000228881836,7.260000228881836,9537
2015-01-13,7.21999979019165,7.349999904632568,7.170000076293945,7.21999979019165,7.21999979019165,2767
2015-01-14,7.179999828338623,7.75,7.179999828338623,7.579999923706055,7.579999923706055,29109
2015-01-15,7.5,7.730000019073486,7.409999847412109,7.46999979019165,7.46999979019165,6212
2015-01-16,7.300000190734863,7.579999923706055,7.260000228881836,7.300000190734863,7.300000190734863,15024
2015-01-19,7.489999771118164,7.599999904632568,7.340000152587891,7.360000133514404,7.360000133514404,10866
2015-01-20,7.21999979019165,7.420000076293945,7.21999979019165,7.389999866485596,7.389999866485596,8602
2015-01-21,7.300000190734863,7.679999828338623,7.300000190734863,7.559999942779541,7.559999942779541,47567
2015-01-22,7.710000038146973,7.75,7.449999809265137,7.559999942779541,7.559999942779541,40522
2015-01-23,7.420000076293945,7.639999866485596,7.28000020980835,7.360000133514404,7.360000133514404,20845
2015-01-27,7.449999809265137,7.550000190734863,7.010000228881836,7.199999809265137,7.199999809265137,31249
2015-01-28,7.230000019073486,7.230000019073486,7.050000190734863,7.070000171661377,7.070000171661377,36291
2015-01-29,7.019999980926514,7.25,6.949999809265137,7.019999980926514,7.019999980926514,31373
2015-01-30,7.0,7.099999904632568,7.0,7.059999942779541,7.059999942779541,6777
2015-02-02,7.269999980926514,7.269999980926514,7.010000228881836,7.070000171661377,7.070000171661377,3261
2015-02-03,6.900000095367432,7.489999771118164,6.900000095367432,7.119999885559082,7.119999885559082,12238
2015-02-04,7.03000020980835,7.03000020980835,6.900000095367432,6.960000038146973,6.960000038146973,25654
2015-02-05,6.900000095367432,6.96999979019165,6.730000019073486,6.730000019073486,6.730000019073486,12223
2015-02-06,6.670000076293945,6.71999979019165,6.599999904632568,6.610000133514404,6.610000133514404,7710
2015-02-09,6.519999980926514,6.619999885559082,6.420000076293945,6.440000057220459,6.440000057220459,13688
2015-02-10,6.420000076293945,6.639999866485596,6.420000076293945,6.420000076293945,6.420000076293945,4472
2015-02-11,6.449999809265137,6.639999866485596,6.420000076293945,6.5,6.5,3015
2015-02-12,6.380000114440918,6.880000114440918,6.380000114440918,6.570000171661377,6.570000171661377,3920
2015-02-13,6.840000152587891,6.840000152587891,6.599999904632568,6.699999809265137,6.699999809265137,12414
2015-02-16,7.329999923706055,7.329999923706055,6.730000019073486,6.75,6.75,28716
2015-02-18,6.75,6.900000095367432,6.630000114440918,6.650000095367432,6.650000095367432,5945
2015-02-19,7.050000190734863,7.050000190734863,6.75,6.769999980926514,6.769999980926514,7848
2015-02-20,6.599999904632568,7.190000057220459,6.510000228881836,6.789999961853027,6.789999961853027,22481
2015-02-23,6.75,6.949999809265137,6.699999809265137,6.739999771118164,6.739999771118164,19065
2015-02-24,6.710000038146973,6.880000114440918,6.559999942779541,6.699999809265137,6.699999809265137,9600
2015-02-25,6.550000190734863,6.650000095367432,6.46999979019165,6.46999979019165,6.46999979019165,9767
2015-02-26,6.46999979019165,6.579999923706055,6.320000171661377,6.369999885559082,6.369999885559082,1426
2015-02-27,6.210000038146973,6.730000019073486,6.210000038146973,6.5,6.5,19902
2015-03-02,6.46999979019165,7.579999923706055,6.199999809265137,7.199999809265137,7.199999809265137,234475
2015-03-03,7.369999885559082,7.369999885559082,7.010000228881836,7.139999866485596,7.139999866485596,11418
2015-03-04,6.510000228881836,7.159999847412109,6.510000228881836,7.110000133514404,7.110000133514404,34376
2015-03-05,7.0,7.079999923706055,6.849999904632568,6.900000095367432,6.900000095367432,3144
2015-03-09,6.989999771118164,7.050000190734863,6.710000038146973,6.730000019073486,6.730000019073486,20397
2015-03-10,7.730000019073486,7.730000019073486,6.650000095367432,6.739999771118164,6.739999771118164,35734
2015-03-11,6.849999904632568,6.849999904632568,6.619999885559082,6.75,6.75,3017
2015-03-12,6.800000190734863,6.909999847412109,6.420000076293945,6.440000057220459,6.440000057220459,33509
2015-03-13,5.980000019073486,6.489999771118164,5.980000019073486,6.289999961853027,6.289999961853027,26558
2015-03-16,6.400000095367432,6.400000095367432,6.159999847412109,6.300000190734863,6.300000190734863,10246
2015-03-17,6.230000019073486,6.230000019073486,5.960000038146973,5.989999771118164,5.989999771118164,279032
2015-03-18,6.239999771118164,6.369999885559082,6.0,6.010000228881836,6.010000228881836,33151
2015-03-19,6.050000190734863,6.199999809265137,6.019999980926514,6.139999866485596,6.139999866485596,11557
2015-03-20,6.349999904632568,6.349999904632568,5.949999809265137,6.0,6.0,279723
2015-03-23,6.0,6.0,5.699999809265137,5.789999961853027,5.789999961853027,37852
2015-03-24,5.989999771118164,5.989999771118164,5.71999979019165,5.869999885559082,5.869999885559082,10801
2015-03-25,6.0,6.090000152587891,5.699999809265137,6.019999980926514,6.019999980926514,47176
2015-03-26,5.809999942779541,5.829999923706055,5.699999809265137,5.760000228881836,5.760000228881836,26379
2015-03-27,5.659999847412109,5.900000095367432,5.25,5.789999961853027,5.789999961853027,103699
2015-03-30,6.25,6.25,5.75,5.960000038146973,5.960000038146973,30071
2015-03-31,5.699999809265137,6.0,5.699999809265137,5.900000095367432,5.900000095367432,1200
2015-04-01,6.0,6.199999809265137,6.0,6.199999809265137,6.199999809265137,3954
2015-04-06,6.380000114440918,7.289999961853027,6.150000095367432,6.820000171661377,6.820000171661377,248273
2015-04-07,7.099999904632568,7.099999904632568,6.699999809265137,6.829999923706055,6.829999923706055,53945
2015-04-08,6.800000190734863,6.829999923706055,6.650000095367432,6.670000076293945,6.670000076293945,20982
2015-04-09,6.619999885559082,6.699999809265137,6.599999904632568,6.679999828338623,6.679999828338623,7924
2015-04-10,6.789999961853027,7.0,6.619999885559082,6.900000095367432,6.900000095367432,36150
2015-04-13,7.179999828338623,7.539999961853027,7.0,7.210000038146973,7.210000038146973,95475
2015-04-15,7.199999809265137,7.789999961853027,7.199999809265137,7.460000038146973,7.460000038146973,150620
2015-04-16,8.239999771118164,8.449999809265137,7.400000095367432,8.369999885559082,8.369999885559082,192927
2015-04-17,8.350000381469727,8.479999542236328,7.809999942779541,8.140000343322754,8.140000343322754,52722
2015-04-20,8.140000343322754,8.199999809265137,7.75,7.940000057220459,7.940000057220459,27274
2015-04-21,7.760000228881836,8.25,7.670000076293945,8.0,8.0,16774
2015-04-22,7.809999942779541,8.100000381469727,7.659999847412109,7.900000095367432,7.900000095367432,5479
2015-04-23,8.0,8.0,7.730000019073486,7.900000095367432,7.900000095367432,6295
2015-04-24,8.0,8.0,7.449999809265137,7.519999980926514,7.519999980926514,4743
2015-04-27,8.25,8.25,7.699999809265137,7.769999980926514,7.769999980926514,60203
2015-04-28,8.5,8.5,7.769999980926514,8.199999809265137,8.199999809265137,24541
2015-04-29,8.199999809265137,8.600000381469727,8.199999809265137,8.40999984741211,8.40999984741211,39155
2015-04-30,8.25,8.899999618530273,8.220000267028809,8.300000190734863,8.300000190734863,87060
2015-05-04,8.399999618530273,8.800000190734863,8.399999618530273,8.65999984741211,8.65999984741211,51826
2015-05-05,8.600000381469727,8.75,8.5,8.739999771118164,8.739999771118164,21972
2015-05-06,8.890000343322754,8.899999618530273,8.260000228881836,8.369999885559082,8.369999885559082,27350
2015-05-07,8.199999809265137,8.5,7.849999904632568,7.909999847412109,7.909999847412109,10190
2015-05-08,7.760000228881836,7.949999809265137,7.5,7.519999980926514,7.519999980926514,24178
2015-05-11,7.900000095367432,7.929999828338623,7.510000228881836,7.679999828338623,7.679999828338623,10206
2015-05-12,7.599999904632568,7.800000190734863,7.480000019073486,7.659999847412109,7.659999847412109,16384
2015-05-13,8.0,8.0,7.519999980926514,7.559999942779541,7.559999942779541,18474
2015-05-14,7.510000228881836,7.519999980926514,7.510000228881836,7.519999980926514,7.519999980926514,650
2015-05-15,7.949999809265137,7.949999809265137,7.519999980926514,7.659999847412109,7.659999847412109,5550
2015-05-18,7.800000190734863,8.800000190734863,7.760000228881836,8.399999618530273,8.399999618530273,107755
2015-05-19,8.649999618530273,8.930000305175781,8.550000190734863,8.6899995803833,8.6899995803833,57646
2015-05-20,8.649999618530273,9.0,8.399999618530273,8.630000114440918,8.630000114440918,51586
2015-05-21,8.850000381469727,9.5,8.65999984741211,9.449999809265137,9.449999809265137,109098
2015-05-22,10.0,10.100000381469727,9.449999809265137,9.5,9.5,476701
2015-05-25,9.779999732971191,9.850000381469727,9.5,9.619999885559082,9.619999885559082,262261
2015-05-26,9.600000381469727,9.75,9.550000190734863,9.59000015258789,9.59000015258789,156372
2015-05-27,9.5,9.649999618530273,9.5,9.550000190734863,9.550000190734863,97371
2015-05-28,9.520000457763672,9.850000381469727,9.520000457763672,9.75,9.75,142250
2015-05-29,9.520000457763672,9.699999809265137,9.520000457763672,9.609999656677246,9.609999656677246,16835
2015-06-01,9.729999542236328,10.300000190734863,9.699999809265137,10.100000381469727,10.100000381469727,198515
2015-06-02,10.100000381469727,10.350000381469727,9.949999809265137,10.039999961853027,10.039999961853027,117897
2015-06-03,10.0,10.0,9.600000381469727,9.699999809265137,9.699999809265137,42793
2015-06-04,10.399999618530273,10.399999618530273,9.699999809265137,10.0,10.0,124526
2015-06-05,9.989999771118164,9.989999771118164,9.760000228881836,9.789999961853027,9.789999961853027,33707
2015-06-08,9.670000076293945,9.670000076293945,9.649999618530273,9.649999618530273,9.649999618530273,44947
2015-06-09,9.619999885559082,9.859999656677246,9.619999885559082,9.699999809265137,9.699999809265137,31527
2015-06-10,9.899999618530273,9.920000076293945,9.75,9.770000457763672,9.770000457763672,10125
2015-06-11,9.65999984741211,9.770000457763672,9.649999618530273,9.720000267028809,9.720000267028809,36561
2015-06-12,9.649999618530273,9.729999542236328,9.649999618530273,9.65999984741211,9.65999984741211,21410
2015-06-15,9.800000190734863,9.800000190734863,9.65999984741211,9.65999984741211,9.65999984741211,11151
2015-06-16,9.600000381469727,9.670000076293945,9.600000381469727,9.619999885559082,9.619999885559082,30425
2015-06-17,9.0,9.829999923706055,9.0,9.65999984741211,9.65999984741211,13492
2015-06-18,9.65999984741211,9.699999809265137,9.65999984741211,9.670000076293945,9.670000076293945,23699
2015-06-19,9.65999984741211,9.720000267028809,9.65999984741211,9.65999984741211,9.65999984741211,16885
2015-06-22,9.800000190734863,9.800000190734863,9.65999984741211,9.789999961853027,9.789999961853027,24145
2015-06-23,9.649999618530273,9.800000190734863,9.649999618530273,9.699999809265137,9.699999809265137,4744
2015-06-24,9.699999809265137,9.850000381469727,9.65999984741211,9.729999542236328,9.729999542236328,12280
2015-06-25,9.699999809265137,9.800000190734863,9.699999809265137,9.75,9.75,7135
2015-06-26,9.829999923706055,9.829999923706055,9.65999984741211,9.680000305175781,9.680000305175781,7757
2015-06-29,9.670000076293945,9.720000267028809,9.600000381469727,9.649999618530273,9.649999618530273,12073
2015-06-30,9.65999984741211,9.779999732971191,9.649999618530273,9.710000038146973,9.710000038146973,26475
2015-07-01,9.850000381469727,9.850000381469727,9.699999809265137,9.739999771118164,9.739999771118164,17626
2015-07-02,9.75,9.850000381469727,9.75,9.800000190734863,9.800000190734863,3345
2015-07-03,9.770000457763672,9.8100004196167,9.699999809265137,9.75,9.75,12350
2015-07-06,9.699999809265137,10.289999961853027,9.649999618530273,10.109999656677246,10.109999656677246,39543
2015-07-07,10.180000305175781,10.399999618530273,9.930000305175781,9.989999771118164,9.989999771118164,35776
2015-07-08,10.130000114440918,10.680000305175781,10.0600004196167,10.550000190734863,10.550000190734863,42880
2015-07-09,10.5600004196167,12.65999984741211,10.329999923706055,12.460000038146973,12.460000038146973,539309
2015-07-10,12.800000190734863,12.800000190734863,11.5,12.029999732971191,12.029999732971191,240080
2015-07-13,12.449999809265137,13.0,11.949999809265137,12.100000381469727,12.100000381469727,56984
2015-07-14,11.920000076293945,12.399999618530273,11.0600004196167,11.270000457763672,11.270000457763672,66930
2015-07-15,11.300000190734863,11.449999809265137,10.449999809265137,10.59000015258789,10.59000015258789,31192
2015-07-16,10.600000381469727,10.6899995803833,10.520000457763672,10.59000015258789,10.59000015258789,16470
2015-07-17,10.5,11.699999809265137,10.420000076293945,11.050000190734863,11.050000190734863,25817
2015-07-20,11.0,11.350000381469727,10.949999809265137,11.09000015258789,11.09000015258789,24861
2015-07-21,10.760000228881836,11.239999771118164,10.699999809265137,11.069999694824219,11.069999694824219,33755
2015-07-22,10.899999618530273,11.020000457763672,10.800000190734863,10.819999694824219,10.819999694824219,8686
2015-07-23,10.770000457763672,11.399999618530273,10.770000457763672,11.25,11.25,11878
2015-07-24,11.539999961853027,13.170000076293945,11.460000038146973,12.270000457763672,12.270000457763672,184476
2015-07-27,12.25,12.300000190734863,11.699999809265137,12.0,12.0,134050
2015-07-28,12.0,12.220000267028809,11.899999618530273,12.020000457763672,12.020000457763672,23379
2015-07-29,12.0,13.770000457763672,11.859999656677246,13.079999923706055,13.079999923706055,100354
2015-07-30,13.270000457763672,15.0,12.5600004196167,14.510000228881836,14.510000228881836,266778
2015-07-31,14.699999809265137,14.760000228881836,13.510000228881836,13.720000267028809,13.720000267028809,69182
2015-08-03,13.949999809265137,14.989999771118164,13.859999656677246,13.949999809265137,13.949999809265137,91572
2015-08-04,11.25,14.729999542236328,11.25,13.869999885559082,13.869999885559082,43809
2015-08-05,14.399999618530273,14.5,13.619999885559082,13.930000305175781,13.930000305175781,50349
2015-08-06,14.170000076293945,14.289999961853027,13.75,13.90999984741211,13.90999984741211,59787
2015-08-07,13.800000190734863,13.819999694824219,13.34000015258789,13.489999771118164,13.489999771118164,31638
2015-08-10,13.5,13.739999771118164,13.319999694824219,13.489999771118164,13.489999771118164,27227
2015-08-11,13.399999618530273,13.649999618530273,12.100000381469727,12.359999656677246,12.359999656677246,32544
2015-08-12,13.25,13.25,12.300000190734863,12.760000228881836,12.760000228881836,38729
2015-08-13,13.09000015258789,13.100000381469727,12.550000190734863,12.59000015258789,12.59000015258789,60965
2015-08-14,12.5,12.899999618530273,11.960000038146973,12.680000305175781,12.680000305175781,26504
2015-08-17,10.8100004196167,13.100000381469727,10.8100004196167,12.970000267028809,12.970000267028809,40141
2015-08-18,13.0,13.399999618530273,12.859999656677246,13.029999732971191,13.029999732971191,83761
2015-08-19,12.350000381469727,13.739999771118164,12.350000381469727,12.779999732971191,12.779999732971191,62756
2015-08-20,12.75,12.800000190734863,12.3100004196167,12.420000076293945,12.420000076293945,21678
2015-08-21,12.0,12.5,11.90999984741211,12.289999961853027,12.289999961853027,50581
2015-08-24,11.75,12.149999618530273,11.100000381469727,11.770000457763672,11.770000457763672,115350
2015-08-25,11.050000190734863,12.0,11.050000190734863,11.510000228881836,11.510000228881836,17970
2015-08-26,11.210000038146973,12.0,10.949999809265137,11.460000038146973,11.460000038146973,42419
2015-08-27,11.0,12.260000228881836,11.0,11.789999961853027,11.789999961853027,14825
2015-08-28,12.5,12.789999961853027,12.0,12.710000038146973,12.710000038146973,33554
2015-08-31,12.569999694824219,13.149999618530273,12.25,12.569999694824219,12.569999694824219,12794
2015-09-01,12.569999694824219,12.600000381469727,12.359999656677246,12.369999885559082,12.369999885559082,21191
2015-09-02,12.109999656677246,12.25,11.699999809265137,11.739999771118164,11.739999771118164,7753
2015-09-03,11.149999618530273,11.90999984741211,11.149999618530273,11.720000267028809,11.720000267028809,4172
2015-09-04,11.3100004196167,11.699999809265137,10.869999885559082,11.140000343322754,11.140000343322754,15433
2015-09-07,11.109999656677246,11.109999656677246,10.010000228881836,10.319999694824219,10.319999694824219,25622
2015-09-08,10.5,10.5,9.699999809265137,10.170000076293945,10.170000076293945,14195
2015-09-09,10.699999809265137,10.75,10.180000305175781,10.300000190734863,10.300000190734863,13921
2015-09-10,10.0,10.800000190734863,10.0,10.739999771118164,10.739999771118164,1656
2015-09-11,10.359999656677246,10.600000381469727,10.350000381469727,10.510000228881836,10.510000228881836,15836
2015-09-14,10.399999618530273,10.569999694824219,10.399999618530273,10.5600004196167,10.5600004196167,290
2015-09-15,10.449999809265137,10.59000015258789,10.449999809265137,10.449999809265137,10.449999809265137,1035
2015-09-16,10.5,10.550000190734863,10.5,10.5,10.5,2116
2015-09-18,10.350000381469727,10.369999885559082,10.350000381469727,10.350000381469727,10.350000381469727,3289
2015-09-21,10.399999618530273,10.5,10.34000015258789,10.359999656677246,10.359999656677246,3274
2015-09-22,11.0,11.229999542236328,10.350000381469727,10.630000114440918,10.630000114440918,7436
2015-09-23,10.229999542236328,10.699999809265137,10.229999542236328,10.5,10.5,4325
2015-09-24,10.319999694824219,10.5,10.319999694824219,10.380000114440918,10.380000114440918,3375
2015-09-28,10.989999771118164,11.270000457763672,10.989999771118164,11.100000381469727,11.100000381469727,28698
2015-09-29,11.050000190734863,11.25,10.970000267028809,11.0,11.0,9514
2015-09-30,11.0,11.0,10.5,10.710000038146973,10.710000038146973,11737
2015-10-01,10.75,11.0,10.720000267028809,10.760000228881836,10.760000228881836,2095
2015-10-05,11.25,11.25,11.010000228881836,11.199999809265137,11.199999809265137,2875
2015-10-06,11.489999771118164,11.489999771118164,10.949999809265137,11.0,11.0,8300
2015-10-07,10.859999656677246,11.300000190734863,10.859999656677246,11.010000228881836,11.010000228881836,10104
2015-10-08,11.770000457763672,11.899999618530273,10.899999618530273,11.229999542236328,11.229999542236328,12141
2015-10-09,11.010000228881836,11.260000228881836,11.010000228881836,11.109999656677246,11.109999656677246,11189
2015-10-12,11.9399995803833,11.9399995803833,11.199999809265137,11.210000038146973,11.210000038146973,3227
2015-10-13,11.0,11.920000076293945,11.0,11.5,11.5,18583
2015-10-14,11.5,11.649999618530273,11.260000228881836,11.600000381469727,11.600000381469727,18430
2015-10-15,11.5,11.649999618530273,11.300000190734863,11.5,11.5,25085
2015-10-16,11.100000381469727,12.0,11.100000381469727,11.90999984741211,11.90999984741211,9816
2015-10-19,12.5,14.289999961853027,12.399999618530273,14.289999961853027,14.289999961853027,142776
2015-10-20,14.649999618530273,15.449999809265137,13.460000038146973,14.90999984741211,14.90999984741211,198311
2015-10-21,15.800000190734863,15.800000190734863,14.300000190734863,14.329999923706055,14.329999923706055,40287
2015-10-23,14.399999618530273,14.6899995803833,14.0,14.289999961853027,14.289999961853027,58239
2015-10-26,14.0,14.0,13.25,13.449999809265137,13.449999809265137,8589
2015-10-27,12.760000228881836,13.449999809265137,12.760000228881836,13.300000190734863,13.300000190734863,3645
2015-10-28,13.050000190734863,13.239999771118164,12.75,12.779999732971191,12.779999732971191,6301
2015-10-29,12.699999809265137,14.0,12.699999809265137,13.479999542236328,13.479999542236328,25635
2015-10-30,13.899999618530273,13.899999618530273,12.800000190734863,12.859999656677246,12.859999656677246,20333
2015-11-02,12.699999809265137,12.899999618530273,12.050000190734863,12.25,12.25,26620
2015-11-03,12.550000190734863,12.699999809265137,12.0,12.350000381469727,12.350000381469727,11857
2015-11-04,12.699999809265137,12.699999809265137,12.149999618530273,12.239999771118164,12.239999771118164,37858
2015-11-05,12.800000190734863,12.800000190734863,12.100000381469727,12.460000038146973,12.460000038146973,11142
2015-11-06,12.420000076293945,12.800000190734863,12.420000076293945,12.739999771118164,12.739999771118164,5300
2015-11-09,12.649999618530273,12.699999809265137,12.380000114440918,12.420000076293945,12.420000076293945,837
2015-11-10,12.300000190734863,12.5,12.25,12.260000228881836,12.260000228881836,12586
2015-11-13,12.220000267028809,12.800000190734863,12.220000267028809,12.699999809265137,12.699999809265137,750
2015-11-16,12.850000381469727,14.449999809265137,12.850000381469727,14.100000381469727,14.100000381469727,25421
2015-11-17,14.84000015258789,14.84000015258789,13.800000190734863,13.979999542236328,13.979999542236328,11489
2015-11-18,13.800000190734863,13.949999809265137,13.300000190734863,13.300000190734863,13.300000190734863,4106
2015-11-19,12.609999656677246,13.989999771118164,12.609999656677246,13.529999732971191,13.529999732971191,10945
2015-11-20,14.279999732971191,15.050000190734863,14.0,14.109999656677246,14.109999656677246,71829
2015-11-23,13.5,14.699999809265137,13.5,14.239999771118164,14.239999771118164,16435
2015-11-24,14.399999618530273,14.5,14.100000381469727,14.34000015258789,14.34000015258789,8247
2015-11-26,14.199999809265137,14.600000381469727,14.050000190734863,14.15999984741211,14.15999984741211,17318
2015-11-27,12.8100004196167,14.800000190734863,12.8100004196167,14.380000114440918,14.380000114440918,15544
2015-11-30,14.949999809265137,14.949999809265137,14.130000114440918,14.25,14.25,7301
2015-12-01,16.0,17.100000381469727,14.0,16.5,16.5,543295
2015-12-02,17.0,17.25,15.40999984741211,15.8100004196167,15.8100004196167,95784
2015-12-03,16.450000762939453,18.399999618530273,15.619999885559082,17.270000457763672,17.270000457763672,189031
2015-12-04,16.690000534057617,19.100000381469727,16.690000534057617,18.329999923706055,18.329999923706055,231833
2015-12-07,18.75,19.299999237060547,18.010000228881836,18.639999389648438,18.639999389648438,155906
2015-12-08,18.059999465942383,20.469999313354492,17.399999618530273,18.940000534057617,18.940000534057617,228046
2015-12-09,19.969999313354492,20.350000381469727,18.0,18.190000534057617,18.190000534057617,184544
2015-12-10,18.639999389648438,19.6299991607666,18.1200008392334,19.440000534057617,19.440000534057617,67837
2015-12-11,19.799999237060547,21.5,19.209999084472656,20.59000015258789,20.59000015258789,246021
2015-12-14,21.450000762939453,22.25,20.850000381469727,21.700000762939453,21.700000762939453,162727
2015-12-15,21.260000228881836,22.549999237060547,21.260000228881836,21.799999237060547,21.799999237060547,140297
2015-12-16,21.799999237060547,26.15999984741211,21.799999237060547,26.15999984741211,26.15999984741211,772445
2015-12-17,28.149999618530273,28.770000457763672,27.170000076293945,28.770000457763672,28.770000457763672,678179
2015-12-18,28.700000762939453,31.639999389648438,28.700000762939453,31.639999389648438,31.639999389648438,600727
2015-12-21,33.70000076293945,34.79999923706055,31.299999237060547,33.209999084472656,33.209999084472656,594714
2015-12-22,33.849998474121094,33.849998474121094,31.549999237060547,31.549999237060547,31.549999237060547,45262
2015-12-23,29.979999542236328,29.979999542236328,29.979999542236328,29.979999542236328,29.979999542236328,48887
2015-12-24,28.489999771118164,29.68000030517578,28.489999771118164,28.489999771118164,28.489999771118164,589035
2015-12-28,27.100000381469727,28.149999618530273,27.06999969482422,27.06999969482422,27.06999969482422,196263
2015-12-29,26.0,26.25,25.719999313354492,25.719999313354492,25.719999313354492,45201
2015-12-30,25.200000762939453,26.489999771118164,24.440000534057617,24.649999618530273,24.649999618530273,404731
