Date,Open,High,Low,Close,Adj Close,Volume
2011-01-03,19.600000381469727,20.600000381469727,19.600000381469727,20.0,20.0,29857
2011-01-04,19.799999237060547,20.549999237060547,19.799999237060547,20.350000381469727,20.350000381469727,45088
2011-01-05,20.200000762939453,20.350000381469727,19.899999618530273,20.049999237060547,20.049999237060547,44674
2011-01-06,20.0,20.200000762939453,19.649999618530273,19.700000762939453,19.700000762939453,23420
2011-01-07,20.0,20.0,19.200000762939453,19.25,19.25,32109
2011-01-10,19.350000381469727,19.600000381469727,18.700000762939453,19.0,19.0,71884
2011-01-11,18.5,19.0,18.5,18.75,18.75,22101
2011-01-12,18.600000381469727,19.25,18.549999237060547,18.850000381469727,18.850000381469727,19397
2011-01-13,19.0,19.0,18.649999618530273,18.850000381469727,18.850000381469727,24444
2011-01-14,18.649999618530273,19.0,18.600000381469727,18.600000381469727,18.600000381469727,9151
2011-01-17,19.0,19.0,18.5,18.5,18.5,21686
2011-01-18,18.549999237060547,18.799999237060547,18.149999618530273,18.399999618530273,18.399999618530273,61181
2011-01-19,18.350000381469727,18.850000381469727,18.350000381469727,18.799999237060547,18.799999237060547,32446
2011-01-20,18.5,19.25,18.5,18.899999618530273,18.899999618530273,9370
2011-01-21,18.649999618530273,19.100000381469727,18.600000381469727,18.850000381469727,18.850000381469727,18311
2011-01-24,18.600000381469727,18.850000381469727,17.950000762939453,18.0,18.0,44118
2011-01-25,17.799999237060547,18.399999618530273,17.200000762939453,18.100000381469727,18.100000381469727,107534
2011-01-27,18.5,18.5,17.950000762939453,18.049999237060547,18.049999237060547,39624
2011-01-28,18.0,18.0,17.5,17.899999618530273,17.899999618530273,42013
2011-01-31,18.0,18.0,17.200000762939453,17.5,17.5,40495
2011-02-01,17.5,18.0,17.5,17.549999237060547,17.549999237060547,22408
2011-02-02,17.950000762939453,17.950000762939453,17.399999618530273,17.549999237060547,17.549999237060547,25332
2011-02-03,17.350000381469727,18.299999237060547,17.350000381469727,18.200000762939453,18.200000762939453,34843
2011-02-04,17.649999618530273,17.700000762939453,17.350000381469727,17.399999618530273,17.399999618530273,21548
2011-02-07,17.450000762939453,17.649999618530273,17.200000762939453,17.450000762939453,17.450000762939453,26485
2011-02-08,17.25,17.399999618530273,17.0,17.100000381469727,17.100000381469727,12798
2011-02-09,16.700000762939453,16.850000381469727,16.25,16.25,16.25,30784
2011-02-10,16.25,16.25,15.449999809265137,15.449999809265137,15.449999809265137,53910
2011-02-11,15.850000381469727,15.850000381469727,15.300000190734863,15.800000190734863,15.800000190734863,31010
2011-02-14,16.0,16.549999237060547,16.0,16.549999237060547,16.549999237060547,21496
2011-02-15,16.549999237060547,16.649999618530273,16.100000381469727,16.5,16.5,40958
2011-02-16,16.5,17.25,16.5,16.950000762939453,16.950000762939453,15981
2011-02-17,16.799999237060547,17.75,16.799999237060547,17.75,17.75,9372
2011-02-18,18.5,18.600000381469727,18.5,18.600000381469727,18.600000381469727,44715
2011-02-21,19.0,19.5,19.0,19.5,19.5,80581
2011-02-22,19.899999618530273,20.049999237060547,19.0,19.600000381469727,19.600000381469727,138220
2011-02-23,19.799999237060547,20.0,19.799999237060547,19.850000381469727,19.850000381469727,18644
2011-02-24,19.600000381469727,20.049999237060547,19.350000381469727,20.0,20.0,126599
2011-02-25,20.0,20.0,19.049999237060547,19.049999237060547,19.049999237060547,38485
2011-02-28,19.0,19.0,18.100000381469727,18.100000381469727,18.100000381469727,18819
2011-03-01,18.049999237060547,18.5,18.0,18.350000381469727,18.350000381469727,8121
2011-03-03,18.049999237060547,18.5,17.899999618530273,18.149999618530273,18.149999618530273,9265
2011-03-04,18.25,18.5,18.0,18.100000381469727,18.100000381469727,20041
2011-03-07,18.100000381469727,18.100000381469727,17.25,17.5,17.5,16519
2011-03-08,17.100000381469727,17.649999618530273,17.100000381469727,17.450000762939453,17.450000762939453,26381
2011-03-09,17.549999237060547,18.200000762939453,17.450000762939453,18.200000762939453,18.200000762939453,31224
2011-03-10,18.149999618530273,18.399999618530273,18.149999618530273,18.350000381469727,18.350000381469727,14922
2011-03-11,18.25,18.399999618530273,18.25,18.25,18.25,12772
2011-03-14,18.25,18.399999618530273,18.0,18.25,18.25,32874
2011-03-15,18.25,18.25,18.0,18.200000762939453,18.200000762939453,34725
2011-03-16,18.25,19.100000381469727,18.25,18.950000762939453,18.950000762939453,88493
2011-03-17,18.600000381469727,19.5,18.600000381469727,19.0,19.0,54377
2011-03-18,18.549999237060547,19.549999237060547,18.399999618530273,19.5,19.5,94192
2011-03-21,19.5,19.549999237060547,18.600000381469727,18.75,18.75,6293
2011-03-22,18.950000762939453,19.100000381469727,18.549999237060547,19.0,19.0,9915
2011-03-23,18.549999237060547,18.899999618530273,18.200000762939453,18.25,18.25,14758
2011-03-24,18.5,18.700000762939453,18.0,18.649999618530273,18.649999618530273,14890
2011-03-25,18.25,18.5,18.0,18.450000762939453,18.450000762939453,26543
2011-03-28,18.299999237060547,18.5,17.850000381469727,18.0,18.0,23745
2011-03-29,18.0,18.5,17.5,17.600000381469727,17.600000381469727,13829
2011-03-30,18.25,18.450000762939453,18.25,18.450000762939453,18.450000762939453,7965
2011-03-31,19.350000381469727,19.350000381469727,19.0,19.299999237060547,19.299999237060547,87695
2011-04-01,19.700000762939453,19.700000762939453,18.649999618530273,18.799999237060547,18.799999237060547,18002
2011-04-04,18.5,18.950000762939453,18.5,18.799999237060547,18.799999237060547,33321
2011-04-05,19.0,19.0,18.350000381469727,18.899999618530273,18.899999618530273,33397
2011-04-06,19.200000762939453,19.25,18.549999237060547,18.700000762939453,18.700000762939453,11843
2011-04-07,18.450000762939453,19.100000381469727,18.350000381469727,19.049999237060547,19.049999237060547,36875
2011-04-08,18.5,19.350000381469727,18.5,18.899999618530273,18.899999618530273,19241
2011-04-11,18.899999618530273,18.899999618530273,18.450000762939453,18.549999237060547,18.549999237060547,11395
2011-04-13,18.350000381469727,19.25,18.350000381469727,18.5,18.5,12407
2011-04-15,19.350000381469727,19.350000381469727,18.200000762939453,18.450000762939453,18.450000762939453,10556
2011-04-18,18.950000762939453,19.149999618530273,18.350000381469727,18.549999237060547,18.549999237060547,27799
2011-04-19,18.5,18.600000381469727,18.350000381469727,18.350000381469727,18.350000381469727,5441
2011-04-20,18.200000762939453,18.799999237060547,18.200000762939453,18.5,18.5,19785
2011-04-21,18.5,18.700000762939453,18.200000762939453,18.649999618530273,18.649999618530273,13066
2011-04-25,18.299999237060547,18.75,18.200000762939453,18.25,18.25,8495
2011-04-26,18.149999618530273,18.5,18.100000381469727,18.200000762939453,18.200000762939453,6300
2011-04-27,18.299999237060547,18.299999237060547,18.0,18.049999237060547,18.049999237060547,11682
2011-04-28,18.149999618530273,18.25,17.899999618530273,18.049999237060547,18.049999237060547,9450
2011-04-29,18.100000381469727,18.100000381469727,17.5,17.600000381469727,17.600000381469727,36665
2011-05-02,17.5,17.799999237060547,17.5,17.600000381469727,17.600000381469727,6340
2011-05-03,17.5,18.0,17.5,17.75,17.75,10601
2011-05-04,17.5,17.75,17.200000762939453,17.350000381469727,17.350000381469727,8191
2011-05-05,17.399999618530273,17.649999618530273,17.200000762939453,17.350000381469727,17.350000381469727,2439
2011-05-06,17.149999618530273,17.649999618530273,17.100000381469727,17.25,17.25,8088
2011-05-09,17.100000381469727,17.649999618530273,17.100000381469727,17.149999618530273,17.149999618530273,2580
2011-05-10,17.049999237060547,17.25,17.0,17.0,17.0,8961
2011-05-11,17.0,17.25,17.0,17.0,17.0,4975
2011-05-12,17.25,17.299999237060547,16.850000381469727,16.950000762939453,16.950000762939453,10626
2011-05-13,16.950000762939453,17.049999237060547,16.799999237060547,17.049999237060547,17.049999237060547,4330
2011-05-16,16.75,17.100000381469727,16.75,17.0,17.0,11044
2011-05-17,16.899999618530273,17.0,16.600000381469727,16.75,16.75,6933
2011-05-18,17.25,17.25,16.600000381469727,16.649999618530273,16.649999618530273,5567
2011-05-19,17.0,17.0,16.0,16.049999237060547,16.049999237060547,29627
2011-05-20,16.5,16.5,15.5,15.75,15.75,45167
2011-05-23,15.899999618530273,15.899999618530273,15.050000190734863,15.300000190734863,15.300000190734863,36383
2011-05-24,15.449999809265137,15.800000190734863,15.300000190734863,15.5,15.5,9967
2011-05-25,15.850000381469727,15.850000381469727,15.100000381469727,15.199999809265137,15.199999809265137,13514
2011-05-26,15.5,15.649999618530273,15.25,15.399999618530273,15.399999618530273,3750
2011-05-27,15.600000381469727,15.949999809265137,15.300000190734863,15.600000381469727,15.600000381469727,6516
2011-05-30,15.800000190734863,16.0,15.449999809265137,15.550000190734863,15.550000190734863,5463
2011-05-31,16.0,16.100000381469727,15.699999809265137,15.949999809265137,15.949999809265137,8928
2011-06-01,16.549999237060547,16.600000381469727,16.0,16.149999618530273,16.149999618530273,5753
2011-06-02,16.899999618530273,16.899999618530273,15.800000190734863,16.200000762939453,16.200000762939453,4820
2011-06-03,15.899999618530273,16.399999618530273,15.899999618530273,15.899999618530273,15.899999618530273,9581
2011-06-06,15.649999618530273,16.200000762939453,15.649999618530273,16.149999618530273,16.149999618530273,10603
2011-06-07,16.299999237060547,16.299999237060547,15.899999618530273,15.949999809265137,15.949999809265137,6436
2011-06-08,16.0,16.0,15.649999618530273,15.75,15.75,5076
2011-06-09,16.0,16.5,15.899999618530273,16.0,16.0,9313
2011-06-10,16.0,16.149999618530273,15.699999809265137,15.949999809265137,15.949999809265137,11522
2011-06-13,16.450000762939453,16.5,15.75,16.25,16.25,15810
2011-06-14,16.5,16.5,16.0,16.299999237060547,16.299999237060547,7828
2011-06-15,16.399999618530273,16.450000762939453,16.0,16.350000381469727,16.350000381469727,6970
2011-06-16,16.399999618530273,16.399999618530273,16.0,16.200000762939453,16.200000762939453,4583
2011-06-17,16.5,16.5,16.049999237060547,16.350000381469727,16.350000381469727,2376
2011-06-20,16.299999237060547,16.299999237060547,15.550000190734863,15.550000190734863,15.550000190734863,18551
2011-06-21,15.899999618530273,15.899999618530273,15.149999618530273,15.199999809265137,15.199999809265137,8897
2011-06-22,15.5,15.5,15.0,15.25,15.25,2136
2011-06-23,15.350000381469727,15.350000381469727,14.5,14.649999618530273,14.649999618530273,26810
2011-06-24,14.5,15.350000381469727,14.5,15.149999618530273,15.149999618530273,9059
2011-06-27,14.800000190734863,15.5,14.800000190734863,15.350000381469727,15.350000381469727,4573
2011-06-28,15.949999809265137,15.949999809265137,14.899999618530273,15.0,15.0,13499
2011-06-29,15.5,15.699999809265137,15.300000190734863,15.649999618530273,15.649999618530273,7614
2011-06-30,15.300000190734863,15.699999809265137,15.149999618530273,15.5,15.5,8260
2011-07-01,15.699999809265137,15.800000190734863,15.399999618530273,15.449999809265137,15.449999809265137,3046
2011-07-04,15.25,15.600000381469727,15.0,15.350000381469727,15.350000381469727,9137
2011-07-05,15.100000381469727,15.5,15.050000190734863,15.050000190734863,15.050000190734863,10823
2011-07-06,15.449999809265137,15.5,15.149999618530273,15.199999809265137,15.199999809265137,10392
2011-07-07,15.350000381469727,15.899999618530273,15.149999618530273,15.699999809265137,15.699999809265137,12370
2011-07-08,15.800000190734863,15.800000190734863,15.399999618530273,15.449999809265137,15.449999809265137,3619
2011-07-11,15.5,15.5,15.100000381469727,15.25,15.25,2277
2011-07-12,15.25,15.25,14.899999618530273,15.0,15.0,9548
2011-07-13,15.0,15.449999809265137,14.899999618530273,14.949999809265137,14.949999809265137,3389
2011-07-14,15.0,15.25,14.850000381469727,14.949999809265137,14.949999809265137,8593
2011-07-15,14.850000381469727,15.25,14.850000381469727,15.25,15.25,11530
2011-07-18,15.25,15.850000381469727,15.25,15.600000381469727,15.600000381469727,29459
2011-07-19,15.399999618530273,15.600000381469727,14.300000190734863,15.0,15.0,59235
2011-07-20,15.399999618530273,15.399999618530273,15.0,15.149999618530273,15.149999618530273,5504
2011-07-21,15.199999809265137,15.449999809265137,14.949999809265137,15.0,15.0,13647
2011-07-22,14.949999809265137,15.5,14.850000381469727,15.199999809265137,15.199999809265137,21465
2011-07-25,15.149999618530273,15.300000190734863,14.899999618530273,15.25,15.25,9977
2011-07-26,15.0,15.449999809265137,14.899999618530273,15.050000190734863,15.050000190734863,28292
2011-07-27,15.25,15.25,14.949999809265137,15.050000190734863,15.050000190734863,7544
2011-07-28,14.949999809265137,15.25,14.899999618530273,15.050000190734863,15.050000190734863,4377
2011-07-29,15.300000190734863,15.300000190734863,14.949999809265137,15.0,15.0,4677
2011-08-01,15.050000190734863,15.050000190734863,14.5,14.739999771118164,14.739999771118164,16072
2011-08-02,14.699999809265137,14.75,14.550000190734863,14.739999771118164,14.739999771118164,8006
2011-08-03,14.75,14.75,14.199999809265137,14.420000076293945,14.420000076293945,4717
2011-08-04,14.5,15.0,14.25,14.460000038146973,14.460000038146973,13224
2011-08-05,13.199999809265137,14.399999618530273,13.199999809265137,13.800000190734863,13.800000190734863,16956
2011-08-08,13.100000381469727,13.90999984741211,13.0,13.579999923706055,13.579999923706055,11374
2011-08-09,13.050000190734863,13.300000190734863,12.899999618530273,12.90999984741211,12.90999984741211,7108
2011-08-10,13.050000190734863,13.479999542236328,13.0,13.050000190734863,13.050000190734863,10439
2011-08-11,13.5,13.5,13.0,13.079999923706055,13.079999923706055,10775
2011-08-12,13.489999771118164,13.489999771118164,13.199999809265137,13.199999809265137,13.199999809265137,7022
2011-08-16,12.5,13.949999809265137,12.5,12.800000190734863,12.800000190734863,2900
2011-08-17,12.510000228881836,12.510000228881836,11.600000381469727,11.859999656677246,11.859999656677246,15391
2011-08-18,12.010000228881836,12.180000305175781,11.119999885559082,11.329999923706055,11.329999923706055,13060
2011-08-19,11.34000015258789,11.34000015258789,10.270000457763672,10.829999923706055,10.829999923706055,18081
2011-08-22,11.100000381469727,11.640000343322754,11.09000015258789,11.260000228881836,11.260000228881836,3306
2011-08-23,11.949999809265137,11.949999809265137,10.899999618530273,11.5,11.5,7356
2011-08-24,11.600000381469727,12.399999618530273,11.210000038146973,11.210000038146973,11.210000038146973,10888
2011-08-25,11.300000190734863,12.0,11.300000190734863,11.600000381469727,11.600000381469727,5751
2011-08-26,11.109999656677246,11.350000381469727,11.0,11.020000457763672,11.020000457763672,6575
2011-08-29,11.75,11.949999809265137,11.319999694824219,11.899999618530273,11.899999618530273,3173
2011-08-30,11.800000190734863,12.0,11.649999618530273,11.6899995803833,11.6899995803833,4475
2011-09-02,11.989999771118164,12.289999961853027,11.520000457763672,11.529999732971191,11.529999732971191,14984
2011-09-05,11.199999809265137,11.699999809265137,11.149999618530273,11.510000228881836,11.510000228881836,9031
2011-09-06,11.359999656677246,11.800000190734863,11.300000190734863,11.699999809265137,11.699999809265137,4010
2011-09-07,11.399999618530273,11.899999618530273,11.399999618530273,11.800000190734863,11.800000190734863,11102
2011-09-08,11.899999618530273,12.800000190734863,11.899999618530273,12.520000457763672,12.520000457763672,19384
2011-09-09,12.649999618530273,12.890000343322754,12.350000381469727,12.479999542236328,12.479999542236328,8224
2011-09-12,12.100000381469727,12.319999694824219,11.699999809265137,11.949999809265137,11.949999809265137,3026
2011-09-13,11.859999656677246,12.220000267028809,11.850000381469727,12.199999809265137,12.199999809265137,8876
2011-09-14,12.0,12.0,11.699999809265137,11.770000457763672,11.770000457763672,5865
2011-09-15,12.09000015258789,12.09000015258789,11.699999809265137,11.819999694824219,11.819999694824219,93968
2011-09-16,12.300000190734863,12.350000381469727,11.649999618530273,12.210000038146973,12.210000038146973,13793
2011-09-19,12.300000190734863,12.300000190734863,11.8100004196167,12.0,12.0,4199
2011-09-20,12.020000457763672,12.149999618530273,11.8100004196167,11.949999809265137,11.949999809265137,7832
2011-09-21,11.75,12.289999961853027,11.75,12.210000038146973,12.210000038146973,3304
2011-09-22,11.710000038146973,12.0,11.649999618530273,11.75,11.75,6297
2011-09-23,11.199999809265137,11.850000381469727,11.199999809265137,11.489999771118164,11.489999771118164,5043
2011-09-26,11.5600004196167,11.850000381469727,11.25,11.329999923706055,11.329999923706055,3372
2011-09-27,11.15999984741211,11.800000190734863,11.15999984741211,11.430000305175781,11.430000305175781,2136
2011-09-28,11.600000381469727,11.75,11.300000190734863,11.390000343322754,11.390000343322754,2805
2011-09-29,11.600000381469727,11.850000381469727,11.149999618530273,11.220000267028809,11.220000267028809,2553
2011-09-30,11.699999809265137,11.699999809265137,10.819999694824219,11.119999885559082,11.119999885559082,4847
2011-10-03,11.649999618530273,11.6899995803833,11.0,11.220000267028809,11.220000267028809,6683
2011-10-04,11.350000381469727,11.350000381469727,10.75,10.760000228881836,10.760000228881836,9538
2011-10-05,11.899999618530273,11.899999618530273,10.5600004196167,10.729999542236328,10.729999542236328,3514
2011-10-07,10.949999809265137,11.0,10.399999618530273,10.630000114440918,10.630000114440918,13310
2011-10-10,10.850000381469727,10.850000381469727,10.5,10.640000343322754,10.640000343322754,5725
2011-10-11,10.300000190734863,10.84000015258789,10.149999618530273,10.489999771118164,10.489999771118164,6484
2011-10-12,10.600000381469727,12.579999923706055,10.600000381469727,12.579999923706055,12.579999923706055,53257
2011-10-13,13.149999618530273,15.09000015258789,13.050000190734863,14.699999809265137,14.699999809265137,296752
2011-10-14,14.899999618530273,15.25,13.050000190734863,14.149999618530273,14.149999618530273,101443
2011-10-17,14.239999771118164,14.699999809265137,13.260000228881836,14.020000457763672,14.020000457763672,70951
2011-10-18,13.600000381469727,13.850000381469727,12.899999618530273,13.100000381469727,13.100000381469727,12535
2011-10-19,13.529999732971191,13.529999732971191,12.109999656677246,12.239999771118164,12.239999771118164,20014
2011-10-20,12.510000228881836,13.390000343322754,12.3100004196167,13.1899995803833,13.1899995803833,15067
2011-10-21,12.75,13.550000190734863,12.75,12.989999771118164,12.989999771118164,6633
2011-10-24,12.75,12.859999656677246,12.149999618530273,12.199999809265137,12.199999809265137,9354
2011-10-25,12.800000190734863,12.800000190734863,11.90999984741211,12.1899995803833,12.1899995803833,6237
2011-10-28,12.5,12.979999542236328,12.5,12.720000267028809,12.720000267028809,6997
2011-10-31,12.520000457763672,12.800000190734863,12.449999809265137,12.6899995803833,12.6899995803833,5592
2011-11-01,12.5,12.899999618530273,12.260000228881836,12.369999885559082,12.369999885559082,5837
2011-11-02,12.050000190734863,12.850000381469727,12.050000190734863,12.579999923706055,12.579999923706055,17074
2011-11-03,12.119999885559082,12.850000381469727,12.119999885559082,12.729999542236328,12.729999542236328,116506
2011-11-04,12.40999984741211,13.0,12.199999809265137,12.300000190734863,12.300000190734863,91604
2011-11-08,12.420000076293945,12.649999618530273,12.300000190734863,12.420000076293945,12.420000076293945,8511
2011-11-09,12.40999984741211,12.699999809265137,12.399999618530273,12.5,12.5,70112
2011-11-11,12.0,12.5,11.899999618530273,12.170000076293945,12.170000076293945,60553
2011-11-14,12.899999618530273,12.899999618530273,11.920000076293945,11.979999542236328,11.979999542236328,5948
2011-11-15,11.899999618530273,12.350000381469727,11.699999809265137,11.710000038146973,11.710000038146973,8176
2011-11-16,11.619999885559082,11.850000381469727,11.100000381469727,11.170000076293945,11.170000076293945,6157
2011-11-17,11.15999984741211,11.270000457763672,10.609999656677246,10.869999885559082,10.869999885559082,9016
2011-11-18,10.65999984741211,10.989999771118164,9.75,9.869999885559082,9.869999885559082,27268
2011-11-21,9.960000038146973,10.279999732971191,9.319999694824219,10.020000457763672,10.020000457763672,26435
2011-11-22,9.800000190734863,11.149999618530273,9.649999618530273,10.989999771118164,10.989999771118164,211732
2011-11-23,10.630000114440918,10.630000114440918,9.350000381469727,9.960000038146973,9.960000038146973,153190
2011-11-24,9.850000381469727,9.899999618530273,8.899999618530273,9.539999961853027,9.539999961853027,238161
2011-11-25,9.890000343322754,10.0,9.359999656677246,9.399999618530273,9.399999618530273,292773
2011-11-28,9.600000381469727,9.899999618530273,9.449999809265137,9.640000343322754,9.640000343322754,11095
2011-11-29,9.399999618530273,9.75,9.25,9.460000038146973,9.460000038146973,6569
2011-11-30,9.199999809265137,9.5,9.199999809265137,9.390000343322754,9.390000343322754,2232
2011-12-01,9.90999984741211,9.90999984741211,9.399999618530273,9.399999618530273,9.399999618530273,6292
2011-12-02,10.149999618530273,10.199999809265137,9.449999809265137,9.600000381469727,9.600000381469727,9296
2011-12-05,9.050000190734863,9.670000076293945,8.989999771118164,9.550000190734863,9.550000190734863,17698
2011-12-07,9.520000457763672,9.6899995803833,9.25,9.4399995803833,9.4399995803833,10844
2011-12-08,9.550000190734863,9.569999694824219,9.25,9.539999961853027,9.539999961853027,3871
2011-12-09,9.550000190734863,9.850000381469727,9.390000343322754,9.489999771118164,9.489999771118164,10012
2011-12-12,9.449999809265137,9.739999771118164,8.800000190734863,8.930000305175781,8.930000305175781,22084
2011-12-13,8.520000457763672,9.0,8.520000457763672,8.9399995803833,8.9399995803833,5229
2011-12-14,8.9399995803833,9.079999923706055,7.639999866485596,8.0,8.0,47342
2011-12-15,7.78000020980835,8.039999961853027,7.71999979019165,8.0,8.0,8696
2011-12-16,8.050000190734863,8.1899995803833,7.849999904632568,7.929999828338623,7.929999828338623,7954
2011-12-19,7.710000038146973,8.25,7.710000038146973,8.020000457763672,8.020000457763672,20302
2011-12-20,7.800000190734863,8.149999618530273,7.599999904632568,8.09000015258789,8.09000015258789,10831
2011-12-21,8.0,8.149999618530273,7.800000190734863,8.0,8.0,4650
2011-12-22,7.900000095367432,8.300000190734863,7.900000095367432,8.239999771118164,8.239999771118164,4142
2011-12-23,8.239999771118164,8.239999771118164,8.0,8.140000343322754,8.140000343322754,2676
2011-12-26,8.239999771118164,8.300000190734863,8.130000114440918,8.199999809265137,8.199999809265137,7045
2011-12-27,8.149999618530273,8.199999809265137,7.199999809265137,7.650000095367432,7.650000095367432,32763
2011-12-28,7.949999809265137,7.949999809265137,7.610000133514404,7.690000057220459,7.690000057220459,10220
2011-12-29,7.599999904632568,7.880000114440918,7.53000020980835,7.53000020980835,7.53000020980835,11628
2011-12-30,7.409999847412109,7.75,7.409999847412109,7.639999866485596,7.639999866485596,3721
