Date,Open,High,Low,Close,Adj Close,Volume
2013-01-01,14.699999809265137,14.699999809265137,13.75,13.90999984741211,13.90999984741211,19123
2013-01-02,14.0,14.399999618530273,13.399999618530273,13.5600004196167,13.5600004196167,29338
2013-01-03,13.550000190734863,13.649999618530273,13.199999809265137,13.520000457763672,13.520000457763672,35374
2013-01-04,13.649999618530273,14.5,13.5,14.420000076293945,14.420000076293945,35063
2013-01-07,14.449999809265137,14.449999809265137,13.75,14.050000190734863,14.050000190734863,22347
2013-01-08,13.720000267028809,14.0,13.550000190734863,13.65999984741211,13.65999984741211,16316
2013-01-09,13.699999809265137,14.0,13.5,13.699999809265137,13.699999809265137,7042
2013-01-10,13.949999809265137,13.949999809265137,13.5600004196167,13.609999656677246,13.609999656677246,20027
2013-01-11,13.75,13.899999618530273,13.25,13.300000190734863,13.300000190734863,11719
2013-01-14,13.15999984741211,13.6899995803833,13.100000381469727,13.470000267028809,13.470000267028809,56160
2013-01-15,13.149999618530273,13.5,13.050000190734863,13.239999771118164,13.239999771118164,3398
2013-01-16,13.239999771118164,13.239999771118164,12.699999809265137,12.800000190734863,12.800000190734863,12784
2013-01-17,13.25,13.25,12.5,12.550000190734863,12.550000190734863,15587
2013-01-18,12.600000381469727,12.75,12.5,12.520000457763672,12.520000457763672,16381
2013-01-21,12.949999809265137,12.949999809265137,12.300000190734863,12.470000267028809,12.470000267028809,12166
2013-01-22,12.300000190734863,12.600000381469727,11.8100004196167,12.020000457763672,12.020000457763672,29564
2013-01-23,11.850000381469727,12.329999923706055,11.800000190734863,12.140000343322754,12.140000343322754,6012
2013-01-24,11.75,11.800000190734863,11.140000343322754,11.300000190734863,11.300000190734863,11897
2013-01-25,11.100000381469727,11.399999618530273,11.020000457763672,11.199999809265137,11.199999809265137,15126
2013-01-28,11.539999961853027,11.729999542236328,11.350000381469727,11.510000228881836,11.510000228881836,2886
2013-01-29,11.5600004196167,11.5600004196167,10.449999809265137,10.739999771118164,10.739999771118164,11601
2013-01-30,11.140000343322754,11.4399995803833,11.0,11.010000228881836,11.010000228881836,4702
2013-01-31,11.390000343322754,11.949999809265137,11.390000343322754,11.739999771118164,11.739999771118164,21419
2013-02-01,12.010000228881836,12.75,11.859999656677246,12.109999656677246,12.109999656677246,15434
2013-02-04,11.800000190734863,12.1899995803833,11.649999618530273,11.760000228881836,11.760000228881836,4107
2013-02-05,11.420000076293945,11.420000076293945,11.119999885559082,11.289999961853027,11.289999961853027,3853
2013-02-06,11.4399995803833,11.4399995803833,11.050000190734863,11.050000190734863,11.050000190734863,4337
2013-02-07,10.850000381469727,11.34000015258789,10.850000381469727,11.029999732971191,11.029999732971191,18542
2013-02-08,10.960000038146973,11.100000381469727,10.449999809265137,10.449999809265137,10.449999809265137,12982
2013-02-11,10.600000381469727,10.739999771118164,10.5,10.720000267028809,10.720000267028809,4420
2013-02-12,10.600000381469727,11.1899995803833,10.210000038146973,10.520000457763672,10.520000457763672,15345
2013-02-13,10.34000015258789,10.75,10.199999809265137,10.260000228881836,10.260000228881836,10968
2013-02-14,10.630000114440918,10.649999618530273,10.15999984741211,10.319999694824219,10.319999694824219,12042
2013-02-15,10.100000381469727,10.199999809265137,10.0,10.039999961853027,10.039999961853027,8459
2013-02-18,11.25,11.25,9.710000038146973,10.100000381469727,10.100000381469727,10771
2013-02-19,10.109999656677246,10.350000381469727,9.850000381469727,9.899999618530273,9.899999618530273,13357
2013-02-20,9.800000190734863,10.300000190734863,9.800000190734863,10.039999961853027,10.039999961853027,3992
2013-02-21,9.949999809265137,10.199999809265137,9.899999618530273,10.180000305175781,10.180000305175781,4878
2013-02-22,10.449999809265137,10.600000381469727,10.0,10.329999923706055,10.329999923706055,6271
2013-02-25,10.149999618530273,10.699999809265137,9.619999885559082,9.720000267028809,9.720000267028809,16231
2013-02-26,9.770000457763672,9.899999618530273,8.699999809265137,8.800000190734863,8.800000190734863,24422
2013-02-27,9.350000381469727,9.5,8.210000038146973,8.699999809265137,8.699999809265137,30715
2013-02-28,8.600000381469727,9.149999618530273,8.579999923706055,9.0,9.0,3587
2013-03-01,8.800000190734863,8.899999618530273,8.399999618530273,8.569999694824219,8.569999694824219,55666
2013-03-04,8.399999618530273,8.40999984741211,8.109999656677246,8.279999732971191,8.279999732971191,61076
2013-03-05,8.100000381469727,9.199999809265137,8.100000381469727,8.649999618530273,8.649999618530273,55886
2013-03-06,8.699999809265137,9.050000190734863,8.5,8.550000190734863,8.550000190734863,6493
2013-03-07,8.600000381469727,8.850000381469727,8.420000076293945,8.670000076293945,8.670000076293945,9871
2013-03-08,8.510000228881836,8.75,8.300000190734863,8.5600004196167,8.5600004196167,4623
2013-03-11,8.399999618530273,8.420000076293945,8.180000305175781,8.199999809265137,8.199999809265137,12100
2013-03-12,8.369999885559082,8.600000381469727,8.220000267028809,8.5,8.5,8037
2013-03-13,8.170000076293945,8.550000190734863,8.170000076293945,8.350000381469727,8.350000381469727,5965
2013-03-14,8.350000381469727,8.5,8.199999809265137,8.399999618530273,8.399999618530273,3341
2013-03-15,8.600000381469727,8.600000381469727,8.109999656677246,8.300000190734863,8.300000190734863,20835
2013-03-18,8.25,8.489999771118164,7.900000095367432,8.069999694824219,8.069999694824219,11090
2013-03-19,8.25,8.539999961853027,7.710000038146973,7.869999885559082,7.869999885559082,22750
2013-03-20,7.519999980926514,7.980000019073486,7.519999980926514,7.559999942779541,7.559999942779541,9820
2013-03-21,7.400000095367432,8.25,7.400000095367432,8.029999732971191,8.029999732971191,15870
2013-03-22,7.650000095367432,7.840000152587891,7.400000095367432,7.480000019073486,7.480000019073486,13335
2013-03-25,7.949999809265137,8.149999618530273,7.349999904632568,7.519999980926514,7.519999980926514,15340
2013-03-26,7.75,7.800000190734863,7.25,7.510000228881836,7.510000228881836,12128
2013-03-28,7.510000228881836,7.599999904632568,7.260000228881836,7.489999771118164,7.489999771118164,18575
2013-04-01,7.5,8.1899995803833,7.5,7.849999904632568,7.849999904632568,9659
2013-04-02,7.800000190734863,8.34000015258789,7.75,8.239999771118164,8.239999771118164,8577
2013-04-03,8.350000381469727,8.649999618530273,8.100000381469727,8.210000038146973,8.210000038146973,10698
2013-04-04,7.800000190734863,8.050000190734863,7.710000038146973,7.849999904632568,7.849999904632568,8142
2013-04-05,7.679999828338623,7.699999809265137,7.670000076293945,7.670000076293945,7.670000076293945,2725
2013-04-08,8.100000381469727,8.100000381469727,7.53000020980835,7.860000133514404,7.860000133514404,4920
2013-04-09,7.550000190734863,8.029999732971191,7.5,7.820000171661377,7.820000171661377,8728
2013-04-10,7.800000190734863,7.900000095367432,7.550000190734863,7.880000114440918,7.880000114440918,2434
2013-04-11,7.800000190734863,7.800000190734863,7.699999809265137,7.71999979019165,7.71999979019165,3900
2013-04-12,8.0,8.199999809265137,7.5,7.730000019073486,7.730000019073486,4104
2013-04-15,7.800000190734863,7.900000095367432,7.699999809265137,7.710000038146973,7.710000038146973,5064
2013-04-16,7.800000190734863,7.900000095367432,7.53000020980835,7.639999866485596,7.639999866485596,4974
2013-04-17,7.550000190734863,8.199999809265137,7.5,8.130000114440918,8.130000114440918,10785
2013-04-18,8.100000381469727,8.199999809265137,7.900000095367432,8.0,8.0,1964
2013-04-22,8.199999809265137,8.199999809265137,7.5,7.590000152587891,7.590000152587891,27081
2013-04-23,7.650000095367432,7.75,7.510000228881836,7.690000057220459,7.690000057220459,11649
2013-04-25,7.659999847412109,7.75,7.610000133514404,7.690000057220459,7.690000057220459,9042
2013-04-26,7.699999809265137,7.699999809265137,7.619999885559082,7.690000057220459,7.690000057220459,7043
2013-04-29,7.699999809265137,7.699999809265137,7.360000133514404,7.630000114440918,7.630000114440918,1392
2013-04-30,7.510000228881836,7.690000057220459,7.510000228881836,7.670000076293945,7.670000076293945,1047
2013-05-02,7.5,7.679999828338623,7.5,7.599999904632568,7.599999904632568,2373
2013-05-03,7.400000095367432,7.699999809265137,7.400000095367432,7.679999828338623,7.679999828338623,2547
2013-05-06,7.75,7.75,7.5,7.679999828338623,7.679999828338623,13409
2013-05-07,7.699999809265137,7.699999809265137,7.619999885559082,7.650000095367432,7.650000095367432,1738
2013-05-08,7.650000095367432,7.690000057220459,7.550000190734863,7.610000133514404,7.610000133514404,2561
2013-05-09,7.599999904632568,7.690000057220459,7.599999904632568,7.659999847412109,7.659999847412109,1450
2013-05-10,7.320000171661377,7.690000057220459,7.320000171661377,7.570000171661377,7.570000171661377,7575
2013-05-13,7.300000190734863,7.650000095367432,7.25,7.559999942779541,7.559999942779541,3006
2013-05-14,7.539999961853027,7.699999809265137,7.539999961853027,7.690000057220459,7.690000057220459,23354
2013-05-15,7.519999980926514,7.75,7.5,7.519999980926514,7.519999980926514,24633
2013-05-16,7.409999847412109,7.53000020980835,7.320000171661377,7.449999809265137,7.449999809265137,15565
2013-05-17,7.420000076293945,7.519999980926514,7.420000076293945,7.5,7.5,5546
2013-05-20,7.429999828338623,7.690000057220459,7.429999828338623,7.659999847412109,7.659999847412109,1350
2013-05-21,7.699999809265137,7.940000057220459,7.300000190734863,7.360000133514404,7.360000133514404,89834
2013-05-22,7.300000190734863,7.449999809265137,7.159999847412109,7.190000057220459,7.190000057220459,7547
2013-05-23,7.639999866485596,7.699999809265137,7.110000133514404,7.239999771118164,7.239999771118164,9022
2013-05-24,7.150000095367432,7.340000152587891,7.110000133514404,7.320000171661377,7.320000171661377,4812
2013-05-27,7.199999809265137,7.389999866485596,7.099999904632568,7.260000228881836,7.260000228881836,4983
2013-05-28,7.099999904632568,7.25,7.0,7.050000190734863,7.050000190734863,11696
2013-05-29,7.289999961853027,7.289999961853027,7.059999942779541,7.079999923706055,7.079999923706055,875
2013-05-30,6.949999809265137,7.480000019073486,6.849999904632568,6.949999809265137,6.949999809265137,12837
2013-05-31,7.690000057220459,7.690000057220459,6.849999904632568,6.849999904632568,6.849999904632568,3354
2013-06-03,6.699999809265137,6.989999771118164,6.699999809265137,6.75,6.75,4036
2013-06-04,6.800000190734863,6.800000190734863,6.699999809265137,6.710000038146973,6.710000038146973,3057
2013-06-05,6.550000190734863,6.75,6.510000228881836,6.599999904632568,6.599999904632568,2680
2013-06-06,6.360000133514404,6.989999771118164,6.360000133514404,6.769999980926514,6.769999980926514,1193
2013-06-07,6.699999809265137,7.099999904632568,6.659999847412109,6.929999828338623,6.929999828338623,41928
2013-06-10,6.75,7.050000190734863,6.75,6.940000057220459,6.940000057220459,5682
2013-06-11,6.75,6.800000190734863,6.5,6.550000190734863,6.550000190734863,5032
2013-06-12,6.300000190734863,6.5,6.300000190734863,6.460000038146973,6.460000038146973,1462
2013-06-13,6.400000095367432,6.400000095367432,6.25,6.25,6.25,1031
2013-06-14,6.050000190734863,6.389999866485596,6.0,6.239999771118164,6.239999771118164,1585
2013-06-17,6.300000190734863,6.349999904632568,6.159999847412109,6.289999961853027,6.289999961853027,365
2013-06-18,6.449999809265137,6.5,6.320000171661377,6.5,6.5,5375
2013-06-19,6.690000057220459,6.690000057220459,6.269999980926514,6.269999980926514,6.269999980926514,625
2013-06-20,6.210000038146973,6.449999809265137,6.0,6.269999980926514,6.269999980926514,6257
2013-06-21,6.400000095367432,6.400000095367432,6.050000190734863,6.050000190734863,6.050000190734863,540
