Date,Open,High,Low,Close,Adj Close,Volume
2014-02-03,8.800000190734863,9.0,8.329999923706055,8.489999771118164,8.489999771118164,19068
2014-02-04,8.15999984741211,8.90999984741211,8.149999618530273,8.699999809265137,8.699999809265137,1766
2014-02-05,8.460000038146973,9.130000114440918,8.460000038146973,9.0,9.0,12193
2014-02-06,9.100000381469727,9.350000381469727,8.819999694824219,9.34000015258789,9.34000015258789,14878
2014-02-07,9.100000381469727,9.399999618530273,9.029999732971191,9.220000267028809,9.220000267028809,6750
2014-02-10,9.010000228881836,9.5,9.010000228881836,9.279999732971191,9.279999732971191,9902
2014-02-11,9.300000190734863,9.399999618530273,9.210000038146973,9.210000038146973,9.210000038146973,4450
2014-02-12,9.029999732971191,9.199999809265137,8.850000381469727,9.010000228881836,9.010000228881836,13767
2014-02-13,9.0,9.0,8.5600004196167,8.5600004196167,8.5600004196167,11150
2014-02-14,8.300000190734863,8.34000015258789,8.140000343322754,8.300000190734863,8.300000190734863,13156
2014-02-17,8.289999961853027,8.300000190734863,8.239999771118164,8.300000190734863,8.300000190734863,540
2014-02-18,8.699999809265137,8.699999809265137,8.25,8.270000457763672,8.270000457763672,3309
2014-02-19,8.260000228881836,8.260000228881836,8.0,8.010000228881836,8.010000228881836,4170
2014-02-20,8.350000381469727,8.40999984741211,8.199999809265137,8.399999618530273,8.399999618530273,3350
2014-02-21,8.350000381469727,8.399999618530273,8.300000190734863,8.319999694824219,8.319999694824219,4246
2014-02-24,8.029999732971191,8.210000038146973,8.0,8.210000038146973,8.210000038146973,7668
2014-02-25,8.100000381469727,8.609999656677246,8.100000381469727,8.109999656677246,8.109999656677246,2180
2014-02-26,8.0600004196167,8.25,8.0600004196167,8.100000381469727,8.100000381469727,1451
2014-02-28,8.050000190734863,8.100000381469727,8.029999732971191,8.029999732971191,8.029999732971191,1250
2014-03-03,8.050000190734863,8.430000305175781,8.039999961853027,8.399999618530273,8.399999618530273,4718
2014-03-04,8.15999984741211,8.199999809265137,8.100000381469727,8.149999618530273,8.149999618530273,14200
2014-03-05,8.119999885559082,8.550000190734863,8.119999885559082,8.460000038146973,8.460000038146973,8522
2014-03-06,8.779999732971191,8.779999732971191,8.199999809265137,8.539999961853027,8.539999961853027,12438
2014-03-07,8.710000038146973,8.800000190734863,8.5,8.529999732971191,8.529999732971191,7750
2014-03-10,8.510000228881836,8.640000343322754,7.849999904632568,8.15999984741211,8.15999984741211,23444
2014-03-11,8.0,8.0,7.449999809265137,7.75,7.75,37080
2014-03-12,7.369999885559082,7.5,7.0,7.289999961853027,7.289999961853027,52032
2014-03-13,6.949999809265137,7.269999980926514,6.949999809265137,7.139999866485596,7.139999866485596,21674
2014-03-14,7.050000190734863,7.340000152587891,6.880000114440918,6.949999809265137,6.949999809265137,17082
2014-03-18,7.489999771118164,7.5,6.659999847412109,6.800000190734863,6.800000190734863,32372
2014-03-19,7.099999904632568,7.150000095367432,6.849999904632568,7.010000228881836,7.010000228881836,21826
2014-03-20,6.860000133514404,7.0,6.849999904632568,6.949999809265137,6.949999809265137,19995
2014-03-21,7.139999866485596,7.139999866485596,6.809999942779541,6.929999828338623,6.929999828338623,14145
2014-03-24,6.900000095367432,7.5,6.860000133514404,7.119999885559082,7.119999885559082,21264
2014-03-25,6.789999961853027,7.21999979019165,6.789999961853027,6.960000038146973,6.960000038146973,14228
2014-03-26,6.960000038146973,7.099999904632568,6.960000038146973,7.019999980926514,7.019999980926514,3596
2014-03-27,7.25,7.25,6.949999809265137,7.050000190734863,7.050000190734863,6241
2014-03-28,7.0,7.0,6.800000190734863,6.800000190734863,6.800000190734863,10502
2014-03-31,6.760000228881836,6.989999771118164,6.760000228881836,6.800000190734863,6.800000190734863,13225
2014-04-01,7.0,7.420000076293945,6.760000228881836,7.130000114440918,7.130000114440918,31418
2014-04-02,7.099999904632568,7.380000114440918,7.019999980926514,7.329999923706055,7.329999923706055,17743
2014-04-03,7.199999809265137,7.400000095367432,7.199999809265137,7.309999942779541,7.309999942779541,9400
2014-04-04,7.139999866485596,7.340000152587891,7.139999866485596,7.300000190734863,7.300000190734863,8525
2014-04-07,7.159999847412109,7.429999828338623,7.150000095367432,7.300000190734863,7.300000190734863,11438
2014-04-09,7.309999942779541,7.800000190734863,7.300000190734863,7.699999809265137,7.699999809265137,16348
2014-04-10,7.550000190734863,8.100000381469727,7.309999942779541,7.420000076293945,7.420000076293945,35586
2014-04-11,7.400000095367432,8.0,7.400000095367432,7.889999866485596,7.889999866485596,27948
2014-04-15,7.900000095367432,8.300000190734863,7.610000133514404,8.199999809265137,8.199999809265137,17716
2014-04-16,7.920000076293945,8.15999984741211,7.809999942779541,7.840000152587891,7.840000152587891,18118
2014-04-17,7.949999809265137,8.25,7.949999809265137,8.109999656677246,8.109999656677246,16301
2014-04-21,7.949999809265137,8.239999771118164,7.949999809265137,8.0600004196167,8.0600004196167,19088
2014-04-22,8.029999732971191,8.34000015258789,8.0,8.010000228881836,8.010000228881836,21137
2014-04-23,8.199999809265137,8.289999961853027,8.109999656677246,8.210000038146973,8.210000038146973,19480
2014-04-25,8.119999885559082,8.119999885559082,7.650000095367432,7.940000057220459,7.940000057220459,20794
2014-04-28,8.0,8.100000381469727,7.800000190734863,7.800000190734863,7.800000190734863,20265
2014-04-29,7.659999847412109,8.0,7.659999847412109,7.849999904632568,7.849999904632568,18621
2014-04-30,7.800000190734863,8.100000381469727,7.510000228881836,7.690000057220459,7.690000057220459,5239
2014-05-02,7.880000114440918,7.889999866485596,7.699999809265137,7.75,7.75,6125
2014-05-05,7.53000020980835,7.769999980926514,7.5,7.690000057220459,7.690000057220459,8466
2014-05-06,8.0,8.0,7.110000133514404,7.170000076293945,7.170000076293945,10761
2014-05-07,7.150000095367432,7.150000095367432,6.980000019073486,7.070000171661377,7.070000171661377,7080
2014-05-08,7.010000228881836,7.380000114440918,7.010000228881836,7.199999809265137,7.199999809265137,3095
2014-05-09,7.019999980926514,7.239999771118164,7.0,7.090000152587891,7.090000152587891,18503
2014-05-12,7.099999904632568,7.300000190734863,7.050000190734863,7.079999923706055,7.079999923706055,8362
2014-05-13,7.059999942779541,7.570000171661377,7.059999942779541,7.320000171661377,7.320000171661377,41387
2014-05-14,7.349999904632568,7.849999904632568,7.210000038146973,7.590000152587891,7.590000152587891,12688
2014-05-15,7.739999771118164,8.25,7.739999771118164,7.869999885559082,7.869999885559082,54100
2014-05-16,8.0,8.0,7.150000095367432,7.21999979019165,7.21999979019165,24721
2014-05-19,7.690000057220459,8.5,7.320000171661377,8.289999961853027,8.289999961853027,41361
2014-05-20,8.5,9.399999618530273,8.4399995803833,9.1899995803833,9.1899995803833,37172
2014-05-21,9.399999618530273,9.800000190734863,9.210000038146973,9.40999984741211,9.40999984741211,40136
2014-05-22,9.850000381469727,10.800000190734863,9.369999885559082,10.239999771118164,10.239999771118164,129362
2014-05-23,10.479999542236328,10.699999809265137,9.210000038146973,9.739999771118164,9.739999771118164,47567
2014-05-26,10.300000190734863,10.300000190734863,8.699999809265137,8.819999694824219,8.819999694824219,59539
2014-05-27,8.819999694824219,8.819999694824219,8.130000114440918,8.210000038146973,8.210000038146973,20283
2014-05-28,8.850000381469727,9.850000381469727,8.399999618530273,9.850000381469727,9.850000381469727,189588
2014-05-29,10.380000114440918,10.399999618530273,9.100000381469727,9.569999694824219,9.569999694824219,85475
2014-05-30,9.510000228881836,10.199999809265137,9.100000381469727,9.25,9.25,68695
2014-06-02,8.920000076293945,9.800000190734863,8.65999984741211,9.449999809265137,9.449999809265137,23963
2014-06-03,9.550000190734863,9.84000015258789,9.319999694824219,9.729999542236328,9.729999542236328,21501
2014-06-04,9.850000381469727,10.0,9.600000381469727,9.8100004196167,9.8100004196167,54632
2014-06-05,9.699999809265137,10.180000305175781,9.569999694824219,9.829999923706055,9.829999923706055,110663
2014-06-06,9.899999618530273,9.899999618530273,9.34000015258789,9.34000015258789,9.34000015258789,59662
2014-06-09,9.15999984741211,9.6899995803833,9.050000190734863,9.479999542236328,9.479999542236328,38836
2014-06-10,9.149999618530273,9.34000015258789,9.0600004196167,9.149999618530273,9.149999618530273,22403
2014-06-11,9.569999694824219,9.600000381469727,9.109999656677246,9.460000038146973,9.460000038146973,59215
2014-06-12,9.399999618530273,9.930000305175781,9.25,9.699999809265137,9.699999809265137,121473
2014-06-13,9.800000190734863,9.899999618530273,9.220000267028809,9.220000267028809,9.220000267028809,71823
2014-06-16,8.779999732971191,9.600000381469727,8.760000228881836,9.069999694824219,9.069999694824219,15373
2014-06-17,9.100000381469727,9.350000381469727,9.100000381469727,9.220000267028809,9.220000267028809,11437
2014-06-18,8.899999618530273,9.399999618530273,8.899999618530273,8.979999542236328,8.979999542236328,26857
2014-06-19,8.949999809265137,9.149999618530273,8.600000381469727,8.75,8.75,18250
2014-06-20,9.0,9.100000381469727,8.649999618530273,8.760000228881836,8.760000228881836,24328
2014-06-23,8.760000228881836,9.0,8.609999656677246,8.970000267028809,8.970000267028809,14716
2014-06-24,8.649999618530273,9.239999771118164,8.649999618530273,8.8100004196167,8.8100004196167,21675
2014-06-25,8.800000190734863,9.0,8.619999885559082,8.6899995803833,8.6899995803833,10656
2014-06-26,8.600000381469727,9.069999694824219,8.449999809265137,8.550000190734863,8.550000190734863,33496
2014-06-27,8.890000343322754,8.9399995803833,8.640000343322754,8.869999885559082,8.869999885559082,7830
2014-06-30,9.100000381469727,9.149999618530273,8.430000305175781,8.5,8.5,71801
2014-07-01,8.5,8.850000381469727,8.319999694824219,8.510000228881836,8.510000228881836,21756
2014-07-02,8.550000190734863,8.600000381469727,8.09000015258789,8.109999656677246,8.109999656677246,121124
2014-07-03,8.279999732971191,8.300000190734863,7.760000228881836,7.929999828338623,7.929999828338623,20623
2014-07-04,8.0,8.100000381469727,7.849999904632568,8.0,8.0,28157
2014-07-07,7.809999942779541,8.25,7.809999942779541,7.900000095367432,7.900000095367432,14380
2014-07-08,7.829999923706055,7.900000095367432,7.510000228881836,7.539999961853027,7.539999961853027,32595
2014-07-09,7.5,7.5,7.179999828338623,7.340000152587891,7.340000152587891,18998
2014-07-10,7.340000152587891,7.699999809265137,7.230000019073486,7.539999961853027,7.539999961853027,29619
2014-07-11,7.449999809265137,7.449999809265137,7.210000038146973,7.300000190734863,7.300000190734863,14027
2014-07-14,7.5,7.5,7.199999809265137,7.25,7.25,1573
2014-07-15,7.070000171661377,7.400000095367432,7.070000171661377,7.369999885559082,7.369999885559082,6540
2014-07-16,7.349999904632568,7.639999866485596,7.349999904632568,7.639999866485596,7.639999866485596,3862
2014-07-17,7.449999809265137,7.889999866485596,7.309999942779541,7.460000038146973,7.460000038146973,23973
2014-07-18,7.599999904632568,7.829999923706055,7.449999809265137,7.829999923706055,7.829999923706055,7042
2014-07-21,7.579999923706055,7.940000057220459,7.579999923706055,7.599999904632568,7.599999904632568,9578
2014-07-22,7.900000095367432,7.900000095367432,7.409999847412109,7.800000190734863,7.800000190734863,10988
2014-07-23,7.619999885559082,7.960000038146973,7.599999904632568,7.659999847412109,7.659999847412109,11253
2014-07-24,7.800000190734863,7.989999771118164,7.800000190734863,7.840000152587891,7.840000152587891,8948
2014-07-25,8.0,8.0,7.599999904632568,7.75,7.75,22208
2014-07-28,7.5,7.599999904632568,7.369999885559082,7.429999828338623,7.429999828338623,8402
2014-07-30,7.449999809265137,7.449999809265137,7.179999828338623,7.179999828338623,7.179999828338623,1645
2014-07-31,7.300000190734863,7.480000019073486,7.159999847412109,7.170000076293945,7.170000076293945,25608
2014-08-01,7.050000190734863,7.400000095367432,7.050000190734863,7.369999885559082,7.369999885559082,9477
2014-08-04,7.46999979019165,7.760000228881836,7.400000095367432,7.670000076293945,7.670000076293945,7550
2014-08-05,7.599999904632568,7.75,7.460000038146973,7.599999904632568,7.599999904632568,9958
2014-08-06,7.119999885559082,7.800000190734863,7.119999885559082,7.619999885559082,7.619999885559082,4659
2014-08-07,7.599999904632568,7.78000020980835,7.400000095367432,7.599999904632568,7.599999904632568,8356
2014-08-08,7.980000019073486,7.980000019073486,7.210000038146973,7.550000190734863,7.550000190734863,2877
2014-08-11,7.159999847412109,7.309999942779541,7.159999847412109,7.230000019073486,7.230000019073486,1674
2014-08-12,7.650000095367432,7.650000095367432,7.210000038146973,7.420000076293945,7.420000076293945,7623
2014-08-13,7.199999809265137,7.199999809265137,6.929999828338623,7.059999942779541,7.059999942779541,23006
2014-08-14,6.809999942779541,7.199999809265137,6.75,7.130000114440918,7.130000114440918,5430
2014-08-18,7.019999980926514,7.019999980926514,6.800000190734863,6.900000095367432,6.900000095367432,16247
2014-08-19,6.710000038146973,7.480000019073486,6.710000038146973,6.920000076293945,6.920000076293945,13099
2014-08-20,7.050000190734863,7.389999866485596,7.050000190734863,7.179999828338623,7.179999828338623,4411
2014-08-21,7.159999847412109,7.260000228881836,7.119999885559082,7.139999866485596,7.139999866485596,14414
2014-08-22,6.900000095367432,7.389999866485596,6.900000095367432,7.309999942779541,7.309999942779541,10164
2014-08-25,7.199999809265137,7.300000190734863,6.949999809265137,6.960000038146973,6.960000038146973,13145
2014-08-26,7.150000095367432,7.199999809265137,6.900000095367432,7.059999942779541,7.059999942779541,4863
2014-08-27,6.900000095367432,7.079999923706055,6.800000190734863,6.949999809265137,6.949999809265137,11227
2014-08-28,6.949999809265137,7.099999904632568,6.900000095367432,6.900000095367432,6.900000095367432,2066
2014-09-01,6.75,7.179999828338623,6.710000038146973,7.179999828338623,7.179999828338623,4154
2014-09-02,7.340000152587891,7.699999809265137,6.849999904632568,7.199999809265137,7.199999809265137,17511
2014-09-03,6.559999942779541,7.46999979019165,6.559999942779541,7.28000020980835,7.28000020980835,16114
2014-09-04,7.099999904632568,7.119999885559082,7.050000190734863,7.099999904632568,7.099999904632568,625
2014-09-05,7.550000190734863,7.550000190734863,7.099999904632568,7.440000057220459,7.440000057220459,16781
2014-09-08,7.300000190734863,7.900000095367432,7.099999904632568,7.699999809265137,7.699999809265137,18269
2014-09-09,7.800000190734863,8.850000381469727,7.670000076293945,8.3100004196167,8.3100004196167,77756
2014-09-10,8.149999618530273,9.380000114440918,7.550000190734863,8.569999694824219,8.569999694824219,134272
2014-09-11,8.600000381469727,10.279999732971191,8.5,10.279999732971191,10.279999732971191,475689
2014-09-12,10.34000015258789,10.449999809265137,9.260000228881836,10.260000228881836,10.260000228881836,223490
2014-09-15,10.5,10.829999923706055,10.0,10.15999984741211,10.15999984741211,102794
2014-09-16,10.0,10.0,9.149999618530273,9.149999618530273,9.149999618530273,52510
2014-09-17,8.600000381469727,9.199999809265137,8.550000190734863,8.84000015258789,8.84000015258789,23927
2014-09-18,8.989999771118164,9.399999618530273,8.899999618530273,9.069999694824219,9.069999694824219,27199
2014-09-19,9.149999618530273,9.199999809265137,8.550000190734863,8.600000381469727,8.600000381469727,12552
2014-09-22,8.84000015258789,8.84000015258789,8.420000076293945,8.670000076293945,8.670000076293945,20083
2014-09-23,8.600000381469727,8.75,8.260000228881836,8.270000457763672,8.270000457763672,12802
2014-09-24,8.300000190734863,8.300000190734863,8.0,8.0,8.0,14837
2014-09-25,8.0,8.449999809265137,7.599999904632568,7.929999828338623,7.929999828338623,8920
2014-09-26,7.920000076293945,8.359999656677246,7.420000076293945,8.0600004196167,8.0600004196167,9764
2014-09-29,7.800000190734863,8.350000381469727,7.650000095367432,8.020000457763672,8.020000457763672,9371
2014-09-30,7.619999885559082,8.479999542236328,7.5,7.739999771118164,7.739999771118164,42188
2014-10-01,7.119999885559082,7.849999904632568,7.119999885559082,7.71999979019165,7.71999979019165,5289
2014-10-07,7.550000190734863,8.0,7.360000133514404,7.630000114440918,7.630000114440918,8155
2014-10-08,7.650000095367432,8.100000381469727,7.650000095367432,7.900000095367432,7.900000095367432,4942
2014-10-09,8.119999885559082,8.119999885559082,7.760000228881836,7.78000020980835,7.78000020980835,3703
2014-10-10,7.699999809265137,7.849999904632568,7.699999809265137,7.840000152587891,7.840000152587891,14391
2014-10-13,7.5,8.229999542236328,7.5,7.900000095367432,7.900000095367432,3999
2014-10-14,7.800000190734863,7.880000114440918,7.650000095367432,7.699999809265137,7.699999809265137,1430
2014-10-16,8.100000381469727,8.329999923706055,7.650000095367432,7.699999809265137,7.699999809265137,13352
2014-10-17,7.409999847412109,8.0,7.199999809265137,7.539999961853027,7.539999961853027,35597
2014-10-20,7.699999809265137,7.699999809265137,7.389999866485596,7.400000095367432,7.400000095367432,9455
2014-10-21,7.170000076293945,7.800000190734863,7.170000076293945,7.449999809265137,7.449999809265137,9391
2014-10-22,7.449999809265137,7.639999866485596,7.400000095367432,7.449999809265137,7.449999809265137,4252
2014-10-27,7.599999904632568,7.800000190734863,7.519999980926514,7.800000190734863,7.800000190734863,9361
2014-10-28,7.349999904632568,7.599999904632568,7.309999942779541,7.53000020980835,7.53000020980835,9553
2014-10-29,7.400000095367432,7.599999904632568,7.400000095367432,7.5,7.5,12260
2014-10-30,7.409999847412109,7.590000152587891,7.360000133514404,7.590000152587891,7.590000152587891,14970
2014-10-31,7.400000095367432,7.690000057220459,7.400000095367432,7.570000171661377,7.570000171661377,8385
2014-11-03,7.889999866485596,8.039999961853027,7.400000095367432,7.849999904632568,7.849999904632568,14007
2014-11-05,8.050000190734863,8.050000190734863,7.800000190734863,7.880000114440918,7.880000114440918,22691
2014-11-07,7.659999847412109,7.980000019073486,7.559999942779541,7.639999866485596,7.639999866485596,11314
2014-11-10,7.599999904632568,7.809999942779541,7.449999809265137,7.480000019073486,7.480000019073486,24913
2014-11-11,7.699999809265137,7.949999809265137,7.510000228881836,7.880000114440918,7.880000114440918,10455
2014-11-12,7.610000133514404,7.840000152587891,7.610000133514404,7.75,7.75,12879
2014-11-13,7.699999809265137,8.300000190734863,7.519999980926514,7.519999980926514,7.519999980926514,15283
2014-11-14,7.650000095367432,8.100000381469727,7.510000228881836,7.960000038146973,7.960000038146973,61807
2014-11-17,8.069999694824219,8.149999618530273,7.800000190734863,8.029999732971191,8.029999732971191,10909
2014-11-18,7.699999809265137,8.239999771118164,7.699999809265137,8.100000381469727,8.100000381469727,20784
2014-11-19,7.760000228881836,9.720000267028809,7.760000228881836,9.25,9.25,230220
2014-11-20,9.5600004196167,9.970000267028809,8.350000381469727,8.619999885559082,8.619999885559082,126520
2014-11-21,8.399999618530273,8.869999885559082,8.399999618530273,8.680000305175781,8.680000305175781,21191
2014-11-24,8.40999984741211,8.59000015258789,8.100000381469727,8.119999885559082,8.119999885559082,17013
2014-11-25,8.010000228881836,8.010000228881836,7.699999809265137,7.829999923706055,7.829999923706055,34616
2014-11-26,7.800000190734863,7.900000095367432,7.550000190734863,7.75,7.75,7653
2014-11-27,7.929999828338623,7.929999828338623,7.610000133514404,7.730000019073486,7.730000019073486,4037
2014-11-28,8.149999618530273,8.149999618530273,7.650000095367432,7.650000095367432,7.650000095367432,24892
2014-12-01,7.650000095367432,8.390000343322754,7.199999809265137,7.260000228881836,7.260000228881836,22195
2014-12-02,7.150000095367432,7.300000190734863,7.150000095367432,7.260000228881836,7.260000228881836,7703
2014-12-03,7.110000133514404,8.449999809265137,7.099999904632568,8.149999618530273,8.149999618530273,43307
2014-12-04,8.0,8.0,7.619999885559082,7.800000190734863,7.800000190734863,4555
2014-12-05,7.800000190734863,8.25,7.710000038146973,7.809999942779541,7.809999942779541,17509
2014-12-08,7.800000190734863,8.100000381469727,7.5,7.789999961853027,7.789999961853027,26243
2014-12-09,7.559999942779541,7.849999904632568,7.449999809265137,7.489999771118164,7.489999771118164,12510
2014-12-10,7.5,7.5,7.170000076293945,7.460000038146973,7.460000038146973,666
2014-12-11,7.650000095367432,7.699999809265137,7.489999771118164,7.519999980926514,7.519999980926514,34524
2014-12-12,7.46999979019165,8.170000076293945,7.460000038146973,7.510000228881836,7.510000228881836,22536
2014-12-15,7.25,7.599999904632568,7.25,7.5,7.5,1435
2014-12-16,7.840000152587891,7.840000152587891,7.0,7.039999961853027,7.039999961853027,16526
2014-12-17,6.920000076293945,7.28000020980835,6.900000095367432,6.980000019073486,6.980000019073486,8269
2014-12-18,7.199999809265137,7.239999771118164,7.119999885559082,7.170000076293945,7.170000076293945,6094
2014-12-19,7.349999904632568,7.480000019073486,7.110000133514404,7.179999828338623,7.179999828338623,20700
2014-12-22,7.050000190734863,7.21999979019165,7.050000190734863,7.119999885559082,7.119999885559082,12311
2014-12-23,7.210000038146973,7.449999809265137,7.110000133514404,7.159999847412109,7.159999847412109,14651
2014-12-24,7.25,7.75,7.159999847412109,7.570000171661377,7.570000171661377,10285
2014-12-26,7.360000133514404,7.789999961853027,7.300000190734863,7.510000228881836,7.510000228881836,5251
2014-12-29,7.599999904632568,7.599999904632568,7.400000095367432,7.440000057220459,7.440000057220459,7960
2014-12-30,8.199999809265137,8.199999809265137,7.380000114440918,7.400000095367432,7.400000095367432,17348
