Date,Open,High,Low,Close,Adj Close,Volume
2020-01-01,14.050000190734863,14.399999618530273,14.0,14.100000381469727,14.100000381469727,2769
2020-01-02,14.399999618530273,15.600000381469727,14.399999618530273,15.100000381469727,15.100000381469727,4565
2020-01-03,15.0,15.0,14.399999618530273,14.579999923706055,14.579999923706055,1047
2020-01-06,14.25,14.5,14.25,14.449999809265137,14.449999809265137,2601
2020-01-07,14.5,14.510000228881836,14.5,14.510000228881836,14.510000228881836,26
2020-01-08,14.8100004196167,14.989999771118164,14.5,14.90999984741211,14.90999984741211,3639
2020-01-09,14.75,14.75,14.5,14.520000457763672,14.520000457763672,1150
2020-01-10,15.029999732971191,16.0,14.699999809265137,14.960000038146973,14.960000038146973,10258
2020-01-13,13.130000114440918,15.359999656677246,13.130000114440918,14.800000190734863,14.800000190734863,3480
2020-01-14,14.850000381469727,15.300000190734863,14.800000190734863,15.199999809265137,15.199999809265137,1800
2020-01-15,15.699999809265137,15.949999809265137,15.170000076293945,15.199999809265137,15.199999809265137,1134
2020-01-16,15.149999618530273,15.899999618530273,15.149999618530273,15.34000015258789,15.34000015258789,871
2020-01-17,16.049999237060547,16.670000076293945,15.800000190734863,16.049999237060547,16.049999237060547,5974
2020-01-20,13.5,18.75,13.5,15.609999656677246,15.609999656677246,9180
2020-01-21,16.989999771118164,16.989999771118164,15.800000190734863,15.899999618530273,15.899999618530273,8223
2020-01-22,16.200000762939453,16.200000762939453,15.899999618530273,15.930000305175781,15.930000305175781,4728
2020-01-23,15.550000190734863,15.75,15.380000114440918,15.75,15.75,1655
2020-01-24,15.5,15.649999618530273,15.470000267028809,15.649999618530273,15.649999618530273,595
2020-01-27,15.649999618530273,15.75,15.569999694824219,15.699999809265137,15.699999809265137,1425
2020-01-28,15.199999809265137,15.420000076293945,15.199999809265137,15.3100004196167,15.3100004196167,824
2020-01-29,15.199999809265137,15.199999809265137,14.800000190734863,14.899999618530273,14.899999618530273,2955
2020-01-30,14.399999618530273,14.550000190734863,14.399999618530273,14.5,14.5,473
2020-01-31,14.600000381469727,14.649999618530273,14.050000190734863,14.350000381469727,14.350000381469727,5566
2020-02-03,13.75,13.75,13.75,13.75,13.75,1
2020-02-04,14.449999809265137,14.850000381469727,14.449999809265137,14.539999961853027,14.539999961853027,321
2020-02-05,14.5,14.550000190734863,14.0,14.449999809265137,14.449999809265137,851
2020-02-06,14.779999732971191,15.199999809265137,14.739999771118164,14.739999771118164,14.739999771118164,2315
2020-02-07,15.010000228881836,15.020000457763672,14.5,14.5,14.5,525
2020-02-10,14.470000267028809,14.5600004196167,14.470000267028809,14.520000457763672,14.520000457763672,1737
2020-02-11,14.460000038146973,14.460000038146973,14.100000381469727,14.109999656677246,14.109999656677246,4585
2020-02-12,14.180000305175781,14.180000305175781,13.600000381469727,13.65999984741211,13.65999984741211,13815
2020-02-13,13.739999771118164,14.119999885559082,13.510000228881836,14.119999885559082,14.119999885559082,3215
2020-02-14,14.119999885559082,14.119999885559082,13.390000343322754,13.449999809265137,13.449999809265137,3223
2020-02-17,13.510000228881836,13.710000038146973,13.510000228881836,13.529999732971191,13.529999732971191,504
2020-02-18,13.710000038146973,13.710000038146973,13.5,13.5,13.5,415
2020-02-19,13.710000038146973,14.239999771118164,13.710000038146973,14.239999771118164,14.239999771118164,250
2020-02-20,14.6899995803833,14.84000015258789,14.520000457763672,14.520000457763672,14.520000457763672,3852
2020-02-24,14.75,14.75,14.0,14.0,14.0,15389
2020-02-25,13.8100004196167,13.8100004196167,13.020000457763672,13.020000457763672,13.020000457763672,520
2020-02-26,13.59000015258789,14.0,13.59000015258789,13.899999618530273,13.899999618530273,2260
2020-02-27,13.979999542236328,15.0,13.979999542236328,14.739999771118164,14.739999771118164,590
2020-02-28,13.869999885559082,13.869999885559082,13.0,13.4399995803833,13.4399995803833,6829
2020-03-02,13.399999618530273,13.539999961853027,12.770000457763672,12.829999923706055,12.829999923706055,10903
2020-03-03,12.8100004196167,13.3100004196167,12.6899995803833,12.75,12.75,12896
2020-03-04,12.59000015258789,12.949999809265137,12.489999771118164,12.5,12.5,5904
2020-03-05,12.5,12.520000457763672,12.479999542236328,12.479999542236328,12.479999542236328,2230
2020-03-06,12.25,13.300000190734863,11.760000228881836,12.819999694824219,12.819999694824219,5201
2020-03-09,12.199999809265137,13.100000381469727,12.199999809265137,12.609999656677246,12.609999656677246,1254
2020-03-11,12.460000038146973,12.979999542236328,12.460000038146973,12.460000038146973,12.460000038146973,6220
2020-03-12,12.25,12.989999771118164,12.0,12.0,12.0,7979
2020-03-13,10.520000457763672,12.25,10.399999618530273,11.449999809265137,11.449999809265137,64352
2020-03-16,11.5,12.5,11.0,12.050000190734863,12.050000190734863,14493
2020-03-17,11.5,12.0600004196167,11.399999618530273,11.649999618530273,11.649999618530273,5351
2020-03-18,11.449999809265137,11.670000076293945,11.0,11.270000457763672,11.270000457763672,3340
2020-03-19,11.0,12.050000190734863,10.449999809265137,12.050000190734863,12.050000190734863,7177
2020-03-20,12.350000381469727,12.350000381469727,11.699999809265137,11.880000114440918,11.880000114440918,3508
2020-03-23,9.699999809265137,10.470000267028809,9.600000381469727,10.199999809265137,10.199999809265137,37741
2020-03-24,10.199999809265137,10.899999618530273,10.0,10.010000228881836,10.010000228881836,16598
2020-03-25,9.850000381469727,10.649999618530273,9.75,10.239999771118164,10.239999771118164,1679
2020-03-26,10.399999618530273,11.600000381469727,10.0,11.5,11.5,7023
2020-03-27,10.5,11.5,9.75,11.100000381469727,11.100000381469727,8403
2020-03-30,10.220000267028809,10.949999809265137,10.220000267028809,10.949999809265137,10.949999809265137,2080
2020-03-31,11.25,11.699999809265137,10.989999771118164,11.34000015258789,11.34000015258789,2363
2020-04-03,11.479999542236328,11.550000190734863,10.5,10.5,10.5,1080
2020-04-07,11.539999961853027,11.539999961853027,11.539999961853027,11.539999961853027,11.539999961853027,80
2020-04-08,13.0,13.84000015258789,13.0,13.84000015258789,13.84000015258789,1836
2020-04-09,16.450000762939453,16.450000762939453,13.300000190734863,14.430000305175781,14.430000305175781,11912
2020-04-13,14.100000381469727,14.130000114440918,13.25,14.130000114440918,14.130000114440918,8031
2020-04-15,13.140000343322754,13.989999771118164,13.140000343322754,13.989999771118164,13.989999771118164,2915
2020-04-16,12.670000076293945,14.039999961853027,12.670000076293945,13.039999961853027,13.039999961853027,3976
2020-04-17,13.5,13.5,13.5,13.5,13.5,525
2020-04-20,13.0600004196167,13.5,13.0600004196167,13.289999961853027,13.289999961853027,18998
2020-04-21,12.649999618530273,13.0,12.600000381469727,12.8100004196167,12.8100004196167,2458
2020-04-22,12.949999809265137,12.949999809265137,12.350000381469727,12.5,12.5,21630
2020-04-23,12.75,13.199999809265137,12.75,13.0,13.0,10211
2020-04-24,13.0,13.0,12.5600004196167,12.720000267028809,12.720000267028809,19375
2020-04-27,12.5,12.850000381469727,12.399999618530273,12.609999656677246,12.609999656677246,21209
2020-04-28,12.75,12.850000381469727,12.600000381469727,12.850000381469727,12.850000381469727,2777
2020-04-29,12.600000381469727,12.600000381469727,12.600000381469727,12.600000381469727,12.600000381469727,150
2020-04-30,12.5,12.75,12.5,12.550000190734863,12.550000190734863,1875
2020-05-04,12.550000190734863,12.9399995803833,12.5,12.9399995803833,12.9399995803833,2572
2020-05-05,12.600000381469727,12.600000381469727,12.5,12.5,12.5,815
2020-05-06,12.449999809265137,12.850000381469727,12.449999809265137,12.850000381469727,12.850000381469727,120
2020-05-07,12.5,13.25,12.020000457763672,12.59000015258789,12.59000015258789,4338
2020-05-08,12.899999618530273,12.949999809265137,10.670000076293945,12.100000381469727,12.100000381469727,11893
2020-05-11,12.050000190734863,12.399999618530273,12.050000190734863,12.399999618530273,12.399999618530273,456
2020-05-12,11.989999771118164,12.289999961853027,11.989999771118164,12.289999961853027,12.289999961853027,951
2020-05-13,12.100000381469727,12.25,12.050000190734863,12.119999885559082,12.119999885559082,1300
2020-05-15,12.25,12.25,11.949999809265137,12.0,12.0,4231
2020-05-18,12.0,12.0,12.0,12.0,12.0,1000
2020-05-19,12.279999732971191,12.279999732971191,11.949999809265137,12.25,12.25,7950
2020-05-21,11.649999618530273,11.960000038146973,11.399999618530273,11.890000343322754,11.890000343322754,2405
2020-05-26,11.75,11.949999809265137,11.520000457763672,11.899999618530273,11.899999618530273,1111
2020-05-28,12.0,12.350000381469727,11.75,11.8100004196167,11.8100004196167,1489
2020-05-29,11.8100004196167,11.899999618530273,11.0,11.899999618530273,11.899999618530273,6375
2020-06-01,11.9399995803833,11.949999809265137,11.9399995803833,11.949999809265137,11.949999809265137,1500
2020-06-03,12.399999618530273,12.550000190734863,11.800000190734863,11.800000190734863,11.800000190734863,948
2020-06-04,11.75,11.890000343322754,11.75,11.890000343322754,11.890000343322754,1025
2020-06-05,9.670000076293945,12.239999771118164,9.670000076293945,12.229999542236328,12.229999542236328,7629
2020-06-08,12.600000381469727,12.75,11.899999618530273,12.020000457763672,12.020000457763672,8627
2020-06-09,12.199999809265137,12.449999809265137,11.600000381469727,12.0,12.0,3499
2020-06-10,12.199999809265137,12.930000305175781,12.0,12.0,12.0,2098
2020-06-11,11.949999809265137,12.25,11.949999809265137,12.050000190734863,12.050000190734863,48360
2020-06-12,11.899999618530273,12.25,11.699999809265137,12.25,12.25,3879
2020-06-15,12.25,12.300000190734863,11.949999809265137,12.100000381469727,12.100000381469727,1986
2020-06-16,12.0,12.0,11.800000190734863,11.920000076293945,11.920000076293945,2081
2020-06-17,11.899999618530273,12.0,11.800000190734863,12.0,12.0,1489
2020-06-18,11.949999809265137,12.739999771118164,11.949999809265137,12.699999809265137,12.699999809265137,11764
2020-06-22,14.199999809265137,15.399999618530273,13.899999618530273,14.050000190734863,14.050000190734863,17517
2020-06-23,14.399999618530273,15.050000190734863,14.399999618530273,14.600000381469727,14.600000381469727,1723
2020-06-24,15.0,16.5,14.649999618530273,15.8100004196167,15.8100004196167,7447052
2020-06-25,16.149999618530273,16.5,15.0,15.5,15.5,24528
2020-06-26,15.399999618530273,15.699999809265137,14.850000381469727,14.899999618530273,14.899999618530273,17232
2020-06-29,14.600000381469727,16.389999389648438,14.5,16.260000228881836,16.260000228881836,41389
2020-06-30,16.459999084472656,17.700000762939453,15.649999618530273,16.100000381469727,16.100000381469727,41747
2020-07-01,16.0,16.25,15.25,16.0,16.0,6755
2020-07-02,16.0,16.649999618530273,16.0,16.350000381469727,16.350000381469727,11028
2020-07-06,13.649999618530273,16.0,13.649999618530273,15.5,15.5,22929
2020-07-07,15.550000190734863,15.600000381469727,14.800000190734863,15.5,15.5,8710
2020-07-08,15.449999809265137,16.0,15.0,15.100000381469727,15.100000381469727,7593
2020-07-09,15.399999618530273,16.0,15.100000381469727,15.350000381469727,15.350000381469727,2182
2020-07-10,15.25,15.399999618530273,14.550000190734863,15.0,15.0,3023
2020-07-13,15.0,15.100000381469727,14.600000381469727,15.0,15.0,242
2020-07-14,14.75,14.899999618530273,14.5,14.75,14.75,2000
2020-07-15,15.25,15.25,15.0,15.149999618530273,15.149999618530273,550
2020-07-16,14.800000190734863,14.800000190734863,13.949999809265137,14.25,14.25,4165
2020-07-17,14.449999809265137,14.449999809265137,14.199999809265137,14.199999809265137,14.199999809265137,90
2020-07-20,14.699999809265137,14.850000381469727,14.5,14.5,14.5,5385
2020-07-21,14.649999618530273,14.649999618530273,14.0,14.350000381469727,14.350000381469727,750
2020-07-22,14.199999809265137,14.550000190734863,13.199999809265137,14.449999809265137,14.449999809265137,1481
2020-07-23,13.75,17.299999237060547,13.75,17.25,17.25,47985
2020-07-24,16.899999618530273,16.899999618530273,15.800000190734863,16.100000381469727,16.100000381469727,30048
2020-07-27,16.149999618530273,16.799999237060547,15.800000190734863,16.0,16.0,9203
2020-07-28,16.049999237060547,16.149999618530273,15.800000190734863,15.850000381469727,15.850000381469727,6745
2020-07-29,15.649999618530273,17.350000381469727,15.5,16.399999618530273,16.399999618530273,16442
2020-07-30,16.450000762939453,16.549999237060547,15.649999618530273,16.0,16.0,15386
2020-07-31,16.200000762939453,16.899999618530273,16.049999237060547,16.350000381469727,16.350000381469727,2131
2020-08-03,15.850000381469727,16.200000762939453,15.25,15.899999618530273,15.899999618530273,1851
2020-08-04,16.0,16.399999618530273,16.0,16.100000381469727,16.100000381469727,740
2020-08-05,17.0,17.0,16.149999618530273,16.25,16.25,2361
2020-08-06,16.399999618530273,16.5,15.949999809265137,16.049999237060547,16.049999237060547,11393
2020-08-07,17.25,17.25,15.800000190734863,16.049999237060547,16.049999237060547,995
2020-08-10,15.850000381469727,15.850000381469727,15.800000190734863,15.850000381469727,15.850000381469727,6593
2020-08-11,16.049999237060547,16.049999237060547,15.600000381469727,15.850000381469727,15.850000381469727,2818
2020-08-12,15.699999809265137,15.899999618530273,15.300000190734863,15.699999809265137,15.699999809265137,8213
2020-08-13,16.149999618530273,16.149999618530273,15.600000381469727,15.600000381469727,15.600000381469727,651
2020-08-14,15.699999809265137,16.950000762939453,15.699999809265137,16.0,16.0,22357
2020-08-17,15.949999809265137,16.200000762939453,15.449999809265137,15.699999809265137,15.699999809265137,7472
2020-08-18,15.0,16.549999237060547,15.0,15.899999618530273,15.899999618530273,13364
2020-08-19,15.899999618530273,15.899999618530273,15.699999809265137,15.699999809265137,15.699999809265137,1222
2020-08-20,15.699999809265137,15.899999618530273,15.5,15.600000381469727,15.600000381469727,15756
2020-08-21,15.949999809265137,16.25,15.600000381469727,15.600000381469727,15.600000381469727,8291
2020-08-24,16.0,16.0,15.300000190734863,15.449999809265137,15.449999809265137,7944
2020-08-25,15.350000381469727,15.350000381469727,15.199999809265137,15.199999809265137,15.199999809265137,6612
2020-08-26,15.0,15.5,14.75,15.399999618530273,15.399999618530273,7548
2020-08-27,15.149999618530273,15.399999618530273,14.949999809265137,15.300000190734863,15.300000190734863,2587
2020-08-28,15.199999809265137,15.5,15.100000381469727,15.100000381469727,15.100000381469727,3604
2020-08-31,15.0,15.050000190734863,14.25,14.449999809265137,14.449999809265137,7474
2020-09-01,14.399999618530273,15.199999809265137,13.850000381469727,14.449999809265137,14.449999809265137,3349
2020-09-02,14.149999618530273,14.449999809265137,14.0,14.420000076293945,14.420000076293945,2206
2020-09-03,14.25,14.300000190734863,14.149999618530273,14.300000190734863,14.300000190734863,1735
2020-09-04,14.0,14.5,13.850000381469727,14.0,14.0,4240
2020-09-07,14.050000190734863,14.199999809265137,13.850000381469727,13.850000381469727,13.850000381469727,2082
2020-09-08,14.199999809265137,14.199999809265137,13.899999618530273,13.899999618530273,13.899999618530273,2
2020-09-09,13.649999618530273,14.0,13.550000190734863,14.0,14.0,2314
2020-09-10,14.149999618530273,14.380000114440918,13.829999923706055,14.050000190734863,14.050000190734863,5793
2020-09-11,13.899999618530273,14.149999618530273,13.699999809265137,14.039999961853027,14.039999961853027,2845
2020-09-14,15.0,15.0,13.75,13.850000381469727,13.850000381469727,4046
2020-09-15,14.0,14.0,13.5,13.520000457763672,13.520000457763672,3082
2020-09-16,13.84000015258789,15.739999771118164,13.84000015258789,14.770000457763672,14.770000457763672,36632
2020-09-17,14.350000381469727,14.5,14.039999961853027,14.289999961853027,14.289999961853027,3598
2020-09-18,14.09000015258789,14.949999809265137,14.09000015258789,14.550000190734863,14.550000190734863,1744
2020-09-21,14.399999618530273,14.800000190734863,13.75,14.100000381469727,14.100000381469727,3891
2020-09-22,13.600000381469727,14.0,13.25,14.0,14.0,3867
2020-09-23,13.949999809265137,13.949999809265137,13.649999618530273,13.649999618530273,13.649999618530273,1550
2020-09-24,14.149999618530273,14.199999809265137,13.520000457763672,13.520000457763672,13.520000457763672,1089
2020-09-25,14.0,14.100000381469727,13.5,14.100000381469727,14.100000381469727,777
2020-09-28,14.199999809265137,14.199999809265137,13.760000228881836,13.760000228881836,13.760000228881836,6000
2020-09-29,14.0,14.0,13.619999885559082,13.739999771118164,13.739999771118164,8529
2020-09-30,13.619999885559082,14.079999923706055,13.609999656677246,13.649999618530273,13.649999618530273,1307
2020-10-01,13.789999961853027,13.899999618530273,13.260000228881836,13.380000114440918,13.380000114440918,9390
2020-10-05,13.300000190734863,13.399999618530273,13.109999656677246,13.239999771118164,13.239999771118164,3139
2020-10-06,13.670000076293945,13.670000076293945,13.300000190734863,13.350000381469727,13.350000381469727,2476
2020-10-07,13.3100004196167,13.319999694824219,13.270000457763672,13.279999732971191,13.279999732971191,596
2020-10-08,13.25,14.0,13.119999885559082,13.5,13.5,5106
2020-10-09,13.789999961853027,13.789999961853027,13.220000267028809,13.600000381469727,13.600000381469727,632
2020-10-12,13.300000190734863,13.300000190734863,13.149999618530273,13.149999618530273,13.149999618530273,3000
2020-10-13,13.109999656677246,13.210000038146973,13.109999656677246,13.210000038146973,13.210000038146973,1450
2020-10-14,12.789999961853027,12.930000305175781,12.5,12.829999923706055,12.829999923706055,9635
2020-10-15,12.949999809265137,13.449999809265137,12.75,12.859999656677246,12.859999656677246,15232
2020-10-16,12.850000381469727,13.0,12.789999961853027,12.880000114440918,12.880000114440918,960
2020-10-19,13.050000190734863,13.050000190734863,12.75,12.800000190734863,12.800000190734863,229
2020-10-20,12.890000343322754,12.890000343322754,12.890000343322754,12.890000343322754,12.890000343322754,50
2020-10-21,13.0,13.0,12.789999961853027,12.789999961853027,12.789999961853027,1300
2020-10-22,13.199999809265137,13.199999809265137,12.699999809265137,12.699999809265137,12.699999809265137,1351
2020-10-23,13.0,13.149999618530273,12.949999809265137,12.949999809265137,12.949999809265137,3767
2020-10-26,13.260000228881836,13.369999885559082,12.890000343322754,13.0,13.0,6336
2020-10-27,12.960000038146973,13.149999618530273,12.600000381469727,12.600000381469727,12.600000381469727,3186
2020-10-28,12.899999618530273,12.899999618530273,12.5,12.729999542236328,12.729999542236328,15134
2020-10-29,12.75,12.800000190734863,12.59000015258789,12.59000015258789,12.59000015258789,2030
2020-10-30,12.699999809265137,12.699999809265137,12.699999809265137,12.699999809265137,12.699999809265137,1001
2020-11-02,12.449999809265137,12.699999809265137,12.220000267028809,12.699999809265137,12.699999809265137,14404
2020-11-03,12.390000343322754,12.649999618530273,12.390000343322754,12.40999984741211,12.40999984741211,7088
2020-11-04,12.600000381469727,12.890000343322754,12.319999694824219,12.40999984741211,12.40999984741211,2070
2020-11-05,12.449999809265137,12.779999732971191,12.390000343322754,12.720000267028809,12.720000267028809,3772
2020-11-06,12.6899995803833,12.960000038146973,12.5,12.609999656677246,12.609999656677246,796
2020-11-09,12.489999771118164,12.609999656677246,12.350000381469727,12.350000381469727,12.350000381469727,2215
2020-11-10,12.25,12.710000038146973,12.25,12.420000076293945,12.420000076293945,1082
2020-11-11,12.539999961853027,12.649999618530273,12.449999809265137,12.489999771118164,12.489999771118164,1217
2020-11-12,12.390000343322754,12.75,12.390000343322754,12.65999984741211,12.65999984741211,1026
2020-11-13,12.65999984741211,12.65999984741211,12.5,12.65999984741211,12.65999984741211,281
2020-11-14,11.850000381469727,12.449999809265137,11.850000381469727,12.449999809265137,12.449999809265137,1004
2020-11-17,12.75,12.9399995803833,12.40999984741211,12.59000015258789,12.59000015258789,3625
2020-11-18,12.609999656677246,13.010000228881836,12.279999732971191,12.699999809265137,12.699999809265137,2178
2020-11-19,12.640000343322754,13.600000381469727,12.420000076293945,12.859999656677246,12.859999656677246,10209
2020-11-20,13.800000190734863,13.800000190734863,13.0,13.479999542236328,13.479999542236328,15100
2020-11-23,13.399999618530273,14.0,13.399999618530273,13.600000381469727,13.600000381469727,1513
2020-11-24,13.449999809265137,13.489999771118164,13.25,13.25,13.25,753
2020-11-25,13.449999809265137,13.449999809265137,13.25,13.25,13.25,1190
2020-11-26,13.100000381469727,13.399999618530273,12.899999618530273,13.140000343322754,13.140000343322754,305
2020-11-27,13.399999618530273,13.5,13.199999809265137,13.5,13.5,4840
2020-12-01,13.149999618530273,14.949999809265137,13.100000381469727,14.3100004196167,14.3100004196167,17876
2020-12-02,14.5,15.0,14.170000076293945,14.4399995803833,14.4399995803833,18626
2020-12-03,14.550000190734863,15.0,14.449999809265137,14.710000038146973,14.710000038146973,11015
2020-12-04,14.800000190734863,14.800000190734863,13.949999809265137,14.010000228881836,14.010000228881836,7517
2020-12-07,14.399999618530273,15.0,14.239999771118164,14.75,14.75,6267
2020-12-08,14.800000190734863,14.979999542236328,14.300000190734863,14.65999984741211,14.65999984741211,5511
2020-12-09,14.75,14.949999809265137,14.6899995803833,14.699999809265137,14.699999809265137,5757
2020-12-10,14.489999771118164,14.489999771118164,14.0,14.100000381469727,14.100000381469727,1150
2020-12-11,14.34000015258789,14.600000381469727,14.289999961853027,14.489999771118164,14.489999771118164,6567
2020-12-14,14.5,14.75,14.140000343322754,14.279999732971191,14.279999732971191,4946
2020-12-15,14.5,14.600000381469727,14.489999771118164,14.600000381469727,14.600000381469727,333
2020-12-16,14.34000015258789,14.770000457763672,14.199999809265137,14.489999771118164,14.489999771118164,2535
2020-12-17,14.600000381469727,16.899999618530273,14.600000381469727,16.09000015258789,16.09000015258789,46943
2020-12-18,16.799999237060547,16.799999237060547,14.649999618530273,15.609999656677246,15.609999656677246,28096
2020-12-21,16.25,16.440000534057617,15.050000190734863,15.350000381469727,15.350000381469727,13227
2020-12-22,15.569999694824219,15.569999694824219,14.300000190734863,15.300000190734863,15.300000190734863,5387
2020-12-23,15.100000381469727,15.449999809265137,15.0,15.279999732971191,15.279999732971191,2763
2020-12-24,16.200000762939453,16.5,15.449999809265137,15.6899995803833,15.6899995803833,15860
2020-12-28,15.899999618530273,15.949999809265137,15.180000305175781,15.600000381469727,15.600000381469727,14358
2020-12-29,15.949999809265137,15.949999809265137,15.149999618530273,15.210000038146973,15.210000038146973,7245
2020-12-30,15.149999618530273,15.600000381469727,15.149999618530273,15.399999618530273,15.399999618530273,1977
