Date,Open,High,Low,Close,Adj Close,Volume
2007-01-02,43.0,43.150001525878906,42.099998474121094,42.5,42.5,39809
2007-01-03,43.150001525878906,45.5,42.54999923706055,44.25,44.25,110348
2007-01-04,45.150001525878906,45.5,44.0,45.25,45.25,86718
2007-01-05,44.0,47.5,43.900001525878906,46.400001525878906,46.400001525878906,167624
2007-01-08,46.95000076293945,48.29999923706055,45.0,45.650001525878906,45.650001525878906,126360
2007-01-09,46.25,46.45000076293945,42.0,43.20000076293945,43.20000076293945,179210
2007-01-10,43.5,43.5,42.04999923706055,42.20000076293945,42.20000076293945,44168
2007-01-11,42.0,43.0,41.599998474121094,42.150001525878906,42.150001525878906,53613
2007-01-12,42.900001525878906,42.900001525878906,41.5,41.599998474121094,41.599998474121094,43075
2007-01-15,44.900001525878906,44.900001525878906,41.650001525878906,41.849998474121094,41.849998474121094,40084
2007-01-16,43.45000076293945,43.45000076293945,41.25,41.650001525878906,41.650001525878906,41308
2007-01-17,41.95000076293945,42.0,41.150001525878906,41.45000076293945,41.45000076293945,72574
2007-01-18,42.0,42.0,40.79999923706055,41.150001525878906,41.150001525878906,28417
2007-01-19,41.5,41.5,40.29999923706055,40.650001525878906,40.650001525878906,32370
2007-01-22,40.0,40.650001525878906,40.0,40.150001525878906,40.150001525878906,26393
2007-01-23,39.099998474121094,40.20000076293945,39.04999923706055,39.900001525878906,39.900001525878906,52944
2007-01-24,39.5,40.5,39.5,39.900001525878906,39.900001525878906,19912
2007-01-25,39.45000076293945,40.29999923706055,39.45000076293945,39.900001525878906,39.900001525878906,20572
2007-01-29,40.0,40.0,38.849998474121094,39.150001525878906,39.150001525878906,154229
2007-01-31,39.0,39.70000076293945,38.900001525878906,39.04999923706055,39.04999923706055,15839
2007-02-01,39.04999923706055,39.29999923706055,38.70000076293945,38.900001525878906,38.900001525878906,23556
2007-02-02,38.75,39.5,38.75,39.04999923706055,39.04999923706055,15962
2007-02-05,40.0,41.900001525878906,39.400001525878906,41.04999923706055,41.04999923706055,110395
2007-02-06,41.349998474121094,42.70000076293945,41.20000076293945,41.95000076293945,41.95000076293945,68369
2007-02-07,42.5,44.0,40.29999923706055,40.650001525878906,40.650001525878906,76621
2007-02-08,41.04999923706055,41.04999923706055,39.650001525878906,39.849998474121094,39.849998474121094,53147
2007-02-09,40.0,40.20000076293945,39.20000076293945,39.650001525878906,39.650001525878906,28803
2007-02-12,40.0,40.0,38.29999923706055,38.400001525878906,38.400001525878906,34980
2007-02-13,38.0,39.400001525878906,36.0,38.900001525878906,38.900001525878906,23469
2007-02-14,37.5,38.5,37.5,38.150001525878906,38.150001525878906,27246
2007-02-15,38.95000076293945,39.5,38.599998474121094,39.400001525878906,39.400001525878906,29528
2007-02-19,40.900001525878906,40.900001525878906,38.650001525878906,38.849998474121094,38.849998474121094,26502
2007-02-20,38.20000076293945,39.400001525878906,38.0,38.349998474121094,38.349998474121094,20390
2007-02-21,38.099998474121094,38.70000076293945,37.54999923706055,38.099998474121094,38.099998474121094,16043
2007-02-22,38.0,38.400001525878906,37.29999923706055,37.45000076293945,37.45000076293945,21422
2007-02-23,37.0,37.900001525878906,36.25,36.599998474121094,36.599998474121094,22736
2007-02-26,36.5,36.849998474121094,35.599998474121094,36.150001525878906,36.150001525878906,20181
2007-02-27,35.650001525878906,37.0,35.650001525878906,36.5,36.5,15939
2007-02-28,35.20000076293945,37.5,33.5,35.349998474121094,35.349998474121094,45068
2007-03-01,35.349998474121094,35.95000076293945,35.04999923706055,35.599998474121094,35.599998474121094,15908
2007-03-02,36.400001525878906,36.400001525878906,35.29999923706055,35.5,35.5,12575
2007-03-05,34.349998474121094,34.75,32.650001525878906,33.349998474121094,33.349998474121094,47740
2007-03-06,32.099998474121094,34.0,32.099998474121094,33.0,33.0,20529
2007-03-07,33.0,33.0,30.5,31.350000381469727,31.350000381469727,22929
2007-03-08,32.5,32.79999923706055,30.049999237060547,32.599998474121094,32.599998474121094,48256
2007-03-09,31.200000762939453,32.79999923706055,31.200000762939453,32.54999923706055,32.54999923706055,32410
2007-03-12,32.599998474121094,32.599998474121094,30.700000762939453,30.850000381469727,30.850000381469727,71654
2007-03-13,31.5,31.600000381469727,30.600000381469727,30.950000762939453,30.950000762939453,58450
2007-03-14,30.25,32.5,30.25,31.649999618530273,31.649999618530273,28386
2007-03-15,32.45000076293945,32.75,31.600000381469727,31.850000381469727,31.850000381469727,16175
2007-03-16,31.649999618530273,32.0,31.350000381469727,31.75,31.75,15515
2007-03-19,31.899999618530273,31.899999618530273,31.100000381469727,31.200000762939453,31.200000762939453,9912
2007-03-20,31.25,31.899999618530273,31.25,31.5,31.5,14299
2007-03-21,31.049999237060547,31.899999618530273,31.049999237060547,31.75,31.75,20628
2007-03-22,32.0,32.5,31.950000762939453,32.20000076293945,32.20000076293945,75366
2007-03-23,32.0,32.5,32.0,32.150001525878906,32.150001525878906,22590
2007-03-26,31.5,31.950000762939453,31.25,31.399999618530273,31.399999618530273,28846
2007-03-28,31.100000381469727,31.75,30.549999237060547,31.149999618530273,31.149999618530273,40221
2007-03-29,31.5,32.0,30.200000762939453,30.649999618530273,30.649999618530273,68505
2007-03-30,31.5,32.45000076293945,31.0,31.649999618530273,31.649999618530273,45686
2007-04-02,31.5,31.5,30.850000381469727,31.200000762939453,31.200000762939453,9461
2007-04-03,31.0,31.700000762939453,30.799999237060547,31.100000381469727,31.100000381469727,10617
2007-04-04,31.200000762939453,31.350000381469727,30.149999618530273,30.399999618530273,30.399999618530273,24755
2007-04-05,30.100000381469727,30.649999618530273,29.649999618530273,30.399999618530273,30.399999618530273,36363
2007-04-09,30.75,31.700000762939453,30.100000381469727,31.399999618530273,31.399999618530273,51038
2007-04-10,31.450000762939453,32.20000076293945,31.450000762939453,32.04999923706055,32.04999923706055,27952
2007-04-11,31.049999237060547,32.599998474121094,31.049999237060547,32.099998474121094,32.099998474121094,33069
2007-04-12,32.349998474121094,34.79999923706055,32.0,33.849998474121094,33.849998474121094,65302
2007-04-13,33.04999923706055,34.5,33.04999923706055,33.95000076293945,33.95000076293945,22506
2007-04-16,34.900001525878906,35.0,34.0,34.75,34.75,24282
2007-04-17,35.5,35.79999923706055,34.29999923706055,34.79999923706055,34.79999923706055,24753
2007-04-18,34.95000076293945,35.0,34.349998474121094,34.5,34.5,22099
2007-04-19,34.5,35.5,33.150001525878906,33.75,33.75,19965
2007-04-20,34.0,34.900001525878906,33.099998474121094,33.25,33.25,11428
2007-04-23,33.650001525878906,34.20000076293945,32.099998474121094,32.849998474121094,32.849998474121094,24341
2007-04-24,33.400001525878906,33.400001525878906,32.099998474121094,32.349998474121094,32.349998474121094,26282
2007-04-25,32.04999923706055,33.75,32.04999923706055,33.150001525878906,33.150001525878906,11812
2007-04-26,33.25,33.599998474121094,32.099998474121094,32.29999923706055,32.29999923706055,27719
2007-04-27,32.29999923706055,32.5,31.5,32.25,32.25,12451
2007-04-30,32.75,32.75,31.5,31.950000762939453,31.950000762939453,9008
2007-05-03,32.0,32.70000076293945,31.299999237060547,31.899999618530273,31.899999618530273,16174
2007-05-04,32.5,32.599998474121094,32.0,32.20000076293945,32.20000076293945,17500
2007-05-07,32.849998474121094,33.25,32.20000076293945,33.04999923706055,33.04999923706055,22422
2007-05-08,33.5,33.5,32.04999923706055,32.29999923706055,32.29999923706055,23016
2007-05-09,31.649999618530273,32.0,31.5,31.649999618530273,31.649999618530273,7767
2007-05-10,31.649999618530273,33.04999923706055,31.0,31.149999618530273,31.149999618530273,36369
2007-05-11,31.399999618530273,32.0,31.350000381469727,31.600000381469727,31.600000381469727,16303
2007-05-14,32.5,33.0,31.350000381469727,31.549999237060547,31.549999237060547,20072
2007-05-15,31.5,31.899999618530273,31.350000381469727,31.350000381469727,31.350000381469727,13590
2007-05-16,32.0,32.150001525878906,31.299999237060547,32.0,32.0,36946
2007-05-17,31.899999618530273,32.400001525878906,31.600000381469727,31.850000381469727,31.850000381469727,14328
2007-05-18,31.549999237060547,32.0,31.200000762939453,31.5,31.5,11844
2007-05-21,31.200000762939453,32.0,31.049999237060547,31.899999618530273,31.899999618530273,34611
2007-05-22,32.900001525878906,38.25,31.700000762939453,38.150001525878906,38.150001525878906,607781
2007-05-23,39.79999923706055,39.79999923706055,34.54999923706055,35.29999923706055,35.29999923706055,427623
2007-05-24,36.0,36.0,34.25,34.5,34.5,89036
2007-05-25,35.0,35.0,33.5,33.599998474121094,33.599998474121094,36836
2007-05-28,33.70000076293945,34.45000076293945,33.5,33.650001525878906,33.650001525878906,30032
2007-05-29,33.599998474121094,33.75,33.0,33.5,33.5,22894
2007-05-30,33.29999923706055,35.79999923706055,32.650001525878906,33.25,33.25,56543
2007-05-31,33.29999923706055,34.20000076293945,33.0,33.099998474121094,33.099998474121094,11019
2007-06-01,33.20000076293945,33.75,32.400001525878906,32.45000076293945,32.45000076293945,24880
2007-06-04,32.25,33.599998474121094,32.25,32.75,32.75,30740
2007-06-05,32.5,33.0,32.0,32.5,32.5,22617
2007-06-06,32.95000076293945,33.150001525878906,31.899999618530273,32.04999923706055,32.04999923706055,55665
2007-06-07,31.75,32.79999923706055,31.600000381469727,31.700000762939453,31.700000762939453,17938
2007-06-08,31.850000381469727,32.20000076293945,31.200000762939453,31.5,31.5,24845
2007-06-11,31.75,32.349998474121094,31.25,31.5,31.5,18421
2007-06-12,31.799999237060547,34.150001525878906,30.149999618530273,32.650001525878906,32.650001525878906,66048
2007-06-13,32.5,33.79999923706055,32.29999923706055,33.20000076293945,33.20000076293945,44323
2007-06-14,33.5,33.849998474121094,32.150001525878906,32.400001525878906,32.400001525878906,24889
2007-06-15,32.349998474121094,32.79999923706055,32.0,32.599998474121094,32.599998474121094,18104
2007-06-18,33.0,34.70000076293945,33.0,34.0,34.0,58158
2007-06-19,34.599998474121094,35.099998474121094,34.0,34.70000076293945,34.70000076293945,52131
2007-06-20,34.150001525878906,35.70000076293945,33.5,33.900001525878906,33.900001525878906,22956
2007-06-21,33.150001525878906,34.5,33.150001525878906,33.45000076293945,33.45000076293945,26215
2007-06-22,32.25,35.599998474121094,32.25,33.29999923706055,33.29999923706055,33218
2007-06-25,32.54999923706055,34.70000076293945,32.54999923706055,33.79999923706055,33.79999923706055,68778
2007-06-26,34.45000076293945,34.5,33.5,33.599998474121094,33.599998474121094,95994
2007-06-27,33.5,34.0,32.04999923706055,32.20000076293945,32.20000076293945,96092
2007-06-28,32.25,32.70000076293945,31.5,32.0,32.0,34694
2007-06-29,32.5,33.75,32.04999923706055,32.45000076293945,32.45000076293945,88958
2007-07-02,33.5,33.5,32.25,32.54999923706055,32.54999923706055,23546
2007-07-03,32.5,32.75,31.5,32.29999923706055,32.29999923706055,22611
2007-07-04,32.400001525878906,32.400001525878906,31.75,31.899999618530273,31.899999618530273,23065
2007-07-05,31.5,32.5,31.5,31.75,31.75,33054
2007-07-06,31.549999237060547,33.79999923706055,31.549999237060547,32.349998474121094,32.349998474121094,230703
2007-07-09,32.099998474121094,32.29999923706055,31.600000381469727,31.799999237060547,31.799999237060547,34546
2007-07-10,32.20000076293945,32.20000076293945,31.549999237060547,31.700000762939453,31.700000762939453,34819
2007-07-11,31.950000762939453,31.950000762939453,31.049999237060547,31.350000381469727,31.350000381469727,54956
2007-07-12,31.549999237060547,32.099998474121094,31.200000762939453,31.700000762939453,31.700000762939453,45043
2007-07-13,32.0,32.29999923706055,31.100000381469727,31.25,31.25,97412
2007-07-16,31.700000762939453,31.700000762939453,30.799999237060547,31.200000762939453,31.200000762939453,35730
2007-07-17,31.299999237060547,31.600000381469727,31.049999237060547,31.350000381469727,31.350000381469727,63078
2007-07-18,31.549999237060547,32.0,30.5,30.799999237060547,30.799999237060547,91090
2007-07-19,31.399999618530273,31.5,30.700000762939453,30.899999618530273,30.899999618530273,93536
2007-07-20,31.850000381469727,31.950000762939453,30.75,30.850000381469727,30.850000381469727,71721
2007-07-23,30.600000381469727,31.200000762939453,30.25,30.350000381469727,30.350000381469727,40634
2007-07-24,30.100000381469727,30.799999237060547,30.100000381469727,30.350000381469727,30.350000381469727,20053
2007-07-25,30.049999237060547,30.350000381469727,30.049999237060547,30.25,30.25,17700
2007-07-26,30.799999237060547,31.0,30.299999237060547,30.549999237060547,30.549999237060547,52614
2007-07-27,29.25,30.350000381469727,28.100000381469727,29.299999237060547,29.299999237060547,38823
2007-07-30,29.549999237060547,29.600000381469727,29.0,29.049999237060547,29.049999237060547,19839
2007-07-31,30.299999237060547,30.299999237060547,28.549999237060547,28.850000381469727,28.850000381469727,23484
2007-08-01,28.100000381469727,28.950000762939453,28.049999237060547,28.25,28.25,26636
2007-08-02,28.25,28.799999237060547,28.200000762939453,28.25,28.25,16282
2007-08-03,28.299999237060547,28.700000762939453,28.100000381469727,28.149999618530273,28.149999618530273,29350
2007-08-06,28.899999618530273,28.899999618530273,27.049999237060547,27.799999237060547,27.799999237060547,19274
2007-08-07,28.649999618530273,28.649999618530273,27.799999237060547,28.100000381469727,28.100000381469727,23281
2007-08-08,28.5,28.5,27.899999618530273,28.049999237060547,28.049999237060547,21443
2007-08-09,28.200000762939453,28.700000762939453,27.600000381469727,27.700000762939453,27.700000762939453,45018
2007-08-10,27.75,27.75,26.5,27.0,27.0,33437
2007-08-13,27.25,27.649999618530273,27.149999618530273,27.299999237060547,27.299999237060547,11432
2007-08-14,27.5,27.899999618530273,26.799999237060547,27.25,27.25,59100
2007-08-16,26.549999237060547,27.149999618530273,26.299999237060547,26.5,26.5,28376
2007-08-17,26.5,26.75,25.950000762939453,26.299999237060547,26.299999237060547,12130
2007-08-20,26.899999618530273,26.899999618530273,26.149999618530273,26.600000381469727,26.600000381469727,19433
2007-08-21,26.5,26.950000762939453,25.799999237060547,25.950000762939453,25.950000762939453,18338
2007-08-22,25.299999237060547,26.0,25.200000762939453,25.850000381469727,25.850000381469727,11629
2007-08-23,26.399999618530273,26.950000762939453,25.100000381469727,25.149999618530273,25.149999618530273,31516
2007-08-24,25.350000381469727,26.0,25.149999618530273,25.850000381469727,25.850000381469727,14847
2007-08-27,25.200000762939453,26.799999237060547,25.200000762939453,26.549999237060547,26.549999237060547,14165
2007-08-28,26.049999237060547,27.0,26.049999237060547,26.950000762939453,26.950000762939453,7499
2007-08-29,26.25,27.950000762939453,26.25,27.600000381469727,27.600000381469727,35779
2007-08-30,27.700000762939453,27.75,27.100000381469727,27.25,27.25,18319
2007-08-31,27.049999237060547,29.5,27.049999237060547,28.5,28.5,71620
2007-09-03,28.700000762939453,29.25,28.100000381469727,28.549999237060547,28.549999237060547,34772
2007-09-04,28.5,29.299999237060547,28.399999618530273,29.200000762939453,29.200000762939453,46878
2007-09-05,29.549999237060547,29.75,28.549999237060547,29.350000381469727,29.350000381469727,90772
2007-09-06,29.399999618530273,31.600000381469727,29.049999237060547,30.450000762939453,30.450000762939453,142378
2007-09-07,30.5,30.899999618530273,29.299999237060547,29.700000762939453,29.700000762939453,59931
2007-09-10,29.100000381469727,30.0,29.0,29.700000762939453,29.700000762939453,46358
2007-09-11,29.700000762939453,30.399999618530273,29.5,30.100000381469727,30.100000381469727,38536
2007-09-12,30.5,31.600000381469727,29.899999618530273,30.25,30.25,129652
2007-09-13,30.25,31.5,30.25,31.200000762939453,31.200000762939453,48980
2007-09-14,31.950000762939453,33.900001525878906,31.5,31.850000381469727,31.850000381469727,171386
2007-09-17,31.399999618530273,31.950000762939453,30.25,30.75,30.75,64905
2007-09-18,30.399999618530273,31.200000762939453,30.399999618530273,30.950000762939453,30.950000762939453,31963
2007-09-19,31.0,31.75,30.5,30.600000381469727,30.600000381469727,37522
2007-09-20,30.350000381469727,31.0,30.299999237060547,30.450000762939453,30.450000762939453,51273
2007-09-21,30.149999618530273,30.5,29.450000762939453,29.549999237060547,29.549999237060547,33850
2007-09-24,29.299999237060547,30.200000762939453,29.0,29.700000762939453,29.700000762939453,34800
2007-09-25,29.600000381469727,30.0,29.100000381469727,29.799999237060547,29.799999237060547,24186
2007-09-26,29.200000762939453,32.25,29.200000762939453,30.75,30.75,118577
2007-09-27,31.100000381469727,31.850000381469727,30.149999618530273,30.350000381469727,30.350000381469727,61858
2007-09-28,29.600000381469727,32.0,29.600000381469727,31.600000381469727,31.600000381469727,184795
2007-10-01,32.0,32.29999923706055,31.299999237060547,31.850000381469727,31.850000381469727,86767
2007-10-03,32.5,32.900001525878906,30.799999237060547,31.149999618530273,31.149999618530273,161382
2007-10-04,31.299999237060547,31.75,30.5,30.799999237060547,30.799999237060547,55555
2007-10-05,31.350000381469727,31.350000381469727,29.75,29.899999618530273,29.899999618530273,75927
2007-10-08,30.5,30.75,28.600000381469727,29.0,29.0,48993
2007-10-09,27.200000762939453,29.200000762939453,27.200000762939453,28.950000762939453,28.950000762939453,38004
2007-10-10,28.600000381469727,29.5,28.399999618530273,28.549999237060547,28.549999237060547,50624
2007-10-11,28.100000381469727,29.299999237060547,27.75,28.450000762939453,28.450000762939453,40618
2007-10-12,28.799999237060547,29.799999237060547,28.049999237060547,28.399999618530273,28.399999618530273,54581
2007-10-15,28.549999237060547,29.350000381469727,28.049999237060547,28.549999237060547,28.549999237060547,46264
2007-10-16,29.299999237060547,29.299999237060547,28.049999237060547,28.149999618530273,28.149999618530273,27471
2007-10-17,27.5,29.0,27.5,28.299999237060547,28.299999237060547,32308
2007-10-18,28.299999237060547,28.649999618530273,27.600000381469727,27.850000381469727,27.850000381469727,45276
2007-10-19,27.100000381469727,28.399999618530273,26.549999237060547,26.850000381469727,26.850000381469727,40789
2007-10-22,26.75,27.299999237060547,26.75,26.950000762939453,26.950000762939453,17870
2007-10-23,27.149999618530273,27.649999618530273,26.75,26.950000762939453,26.950000762939453,25008
2007-10-24,27.049999237060547,27.299999237060547,26.149999618530273,26.450000762939453,26.450000762939453,54705
2007-10-25,27.100000381469727,27.25,26.899999618530273,27.200000762939453,27.200000762939453,23970
2007-10-26,27.0,27.5,26.950000762939453,27.100000381469727,27.100000381469727,26722
2007-10-29,27.299999237060547,27.299999237060547,26.399999618530273,26.549999237060547,26.549999237060547,45381
2007-10-30,26.850000381469727,27.0,26.149999618530273,26.25,26.25,39076
2007-10-31,26.399999618530273,26.5,25.649999618530273,25.75,25.75,24094
2007-11-01,26.25,26.299999237060547,25.149999618530273,25.399999618530273,25.399999618530273,27876
2007-11-02,25.25,25.850000381469727,25.049999237060547,25.25,25.25,15542
2007-11-05,24.25,25.950000762939453,24.25,25.600000381469727,25.600000381469727,26545
2007-11-06,25.799999237060547,27.25,25.5,26.600000381469727,26.600000381469727,63953
2007-11-07,26.25,26.950000762939453,25.700000762939453,25.950000762939453,25.950000762939453,14756
2007-11-08,26.200000762939453,26.450000762939453,25.25,25.450000762939453,25.450000762939453,17621
2007-11-12,25.600000381469727,26.350000381469727,25.399999618530273,25.950000762939453,25.950000762939453,26341
2007-11-13,26.899999618530273,27.5,25.549999237060547,26.549999237060547,26.549999237060547,45704
2007-11-14,26.200000762939453,27.25,26.200000762939453,27.0,27.0,34070
2007-11-15,27.899999618530273,28.0,26.700000762939453,27.700000762939453,27.700000762939453,57632
2007-11-16,28.700000762939453,31.5,28.0,30.0,30.0,188758
2007-11-19,32.0,32.849998474121094,30.799999237060547,32.349998474121094,32.349998474121094,224111
2007-11-20,32.5,32.5,30.799999237060547,31.0,31.0,68161
2007-11-21,30.5,31.5,28.799999237060547,28.950000762939453,28.950000762939453,49904
2007-11-22,28.549999237060547,29.200000762939453,27.549999237060547,28.25,28.25,27791
2007-11-23,29.799999237060547,29.799999237060547,27.850000381469727,28.100000381469727,28.100000381469727,26277
2007-11-26,28.100000381469727,28.899999618530273,28.049999237060547,28.649999618530273,28.649999618530273,12803
2007-11-27,28.049999237060547,28.950000762939453,28.049999237060547,28.399999618530273,28.399999618530273,17811
2007-11-28,28.100000381469727,30.700000762939453,28.100000381469727,29.0,29.0,58546
2007-11-29,30.899999618530273,30.899999618530273,28.149999618530273,28.450000762939453,28.450000762939453,24445
2007-11-30,28.799999237060547,29.350000381469727,28.0,28.75,28.75,24063
2007-12-03,29.0,29.5,28.5,28.950000762939453,28.950000762939453,50562
2007-12-04,28.700000762939453,32.95000076293945,28.700000762939453,31.450000762939453,31.450000762939453,251210
2007-12-05,32.79999923706055,34.0,31.950000762939453,32.25,32.25,181321
2007-12-06,33.849998474121094,33.849998474121094,31.5,31.799999237060547,31.799999237060547,97554
2007-12-07,31.5,32.0,30.5,30.600000381469727,30.600000381469727,49017
2007-12-10,31.0,32.0,30.149999618530273,31.75,31.75,75719
2007-12-11,32.75,33.0,31.5,31.649999618530273,31.649999618530273,88281
2007-12-12,31.950000762939453,32.95000076293945,31.200000762939453,32.29999923706055,32.29999923706055,85084
2007-12-13,33.79999923706055,38.75,32.5,38.75,38.75,927596
2007-12-14,40.5,42.599998474121094,39.849998474121094,40.150001525878906,40.150001525878906,1736836
2007-12-17,40.0,40.0,34.5,35.29999923706055,35.29999923706055,396336
2007-12-18,35.5,35.79999923706055,34.099998474121094,35.349998474121094,35.349998474121094,135090
2007-12-19,36.849998474121094,36.849998474121094,34.400001525878906,34.95000076293945,34.95000076293945,302577
2007-12-20,35.04999923706055,38.79999923706055,34.70000076293945,36.150001525878906,36.150001525878906,382793
2007-12-24,36.95000076293945,37.70000076293945,35.099998474121094,36.0,36.0,119274
2007-12-26,36.95000076293945,36.95000076293945,35.5,35.79999923706055,35.79999923706055,102491
2007-12-27,36.75,36.75,35.5,35.79999923706055,35.79999923706055,75765
2007-12-28,35.0,38.5,35.0,37.400001525878906,37.400001525878906,274738
