Date,Open,High,Low,Close,Adj Close,Volume
2016-01-01,25.5,27.0,25.5,26.600000381469727,26.600000381469727,72514
2016-01-04,26.600000381469727,27.399999618530273,26.0,26.649999618530273,26.649999618530273,100512
2016-01-05,27.950000762939453,27.950000762939453,26.200000762939453,26.25,26.25,34798
2016-01-06,26.0,27.299999237060547,25.950000762939453,26.299999237060547,26.299999237060547,48727
2016-01-07,25.450000762939453,26.100000381469727,25.0,25.0,25.0,48916
2016-01-08,24.799999237060547,25.200000762939453,24.649999618530273,25.0,25.0,32229
2016-01-11,24.549999237060547,25.149999618530273,23.75,23.950000762939453,23.950000762939453,44294
2016-01-12,24.0,24.399999618530273,23.299999237060547,23.549999237060547,23.549999237060547,58914
2016-01-13,24.5,24.5,22.549999237060547,23.149999618530273,23.149999618530273,64637
2016-01-14,22.549999237060547,22.950000762939453,22.0,22.350000381469727,22.350000381469727,71089
2016-01-15,22.600000381469727,22.600000381469727,21.350000381469727,21.600000381469727,21.600000381469727,30717
2016-01-18,21.049999237060547,21.549999237060547,20.549999237060547,20.549999237060547,20.549999237060547,36230
2016-01-19,20.200000762939453,20.399999618530273,19.600000381469727,19.950000762939453,19.950000762939453,39211
2016-01-20,19.25,19.5,19.0,19.0,19.0,25324
2016-01-21,19.25,19.25,18.049999237060547,18.049999237060547,18.049999237060547,33243
2016-01-22,17.950000762939453,18.950000762939453,17.950000762939453,18.950000762939453,18.950000762939453,34481
2016-01-25,19.649999618530273,19.850000381469727,19.049999237060547,19.850000381469727,19.850000381469727,23221
2016-01-27,20.799999237060547,20.799999237060547,20.700000762939453,20.799999237060547,20.799999237060547,25497
2016-01-28,21.799999237060547,21.799999237060547,21.799999237060547,21.799999237060547,21.799999237060547,11326
2016-01-29,22.850000381469727,22.850000381469727,22.850000381469727,22.850000381469727,22.850000381469727,15246
2016-02-01,23.950000762939453,23.950000762939453,23.950000762939453,23.950000762939453,23.950000762939453,6436
2016-02-02,25.100000381469727,25.100000381469727,23.049999237060547,24.799999237060547,24.799999237060547,259319
2016-02-03,24.049999237060547,24.799999237060547,23.600000381469727,23.850000381469727,23.850000381469727,45248
2016-02-04,24.799999237060547,25.0,24.100000381469727,24.149999618530273,24.149999618530273,41363
2016-02-05,24.5,24.700000762939453,23.049999237060547,23.299999237060547,23.299999237060547,13852
2016-02-08,24.299999237060547,24.299999237060547,22.200000762939453,23.049999237060547,23.049999237060547,4550
2016-02-09,22.950000762939453,23.049999237060547,22.600000381469727,22.799999237060547,22.799999237060547,7184
2016-02-10,23.649999618530273,23.649999618530273,21.899999618530273,21.950000762939453,21.950000762939453,9396
2016-02-11,21.350000381469727,21.399999618530273,20.899999618530273,20.899999618530273,20.899999618530273,15406
2016-02-12,21.5,21.5,19.899999618530273,19.950000762939453,19.950000762939453,19340
2016-02-15,19.950000762939453,20.899999618530273,19.950000762939453,20.899999618530273,20.899999618530273,13567
2016-02-16,21.850000381469727,21.899999618530273,21.600000381469727,21.899999618530273,21.899999618530273,36746
2016-02-17,21.600000381469727,22.0,20.899999618530273,21.950000762939453,21.950000762939453,11535
2016-02-18,22.950000762939453,22.950000762939453,22.0,22.149999618530273,22.149999618530273,9876
2016-02-19,22.899999618530273,22.899999618530273,21.649999618530273,21.899999618530273,21.899999618530273,3669
2016-02-22,22.399999618530273,22.5,21.399999618530273,22.299999237060547,22.299999237060547,4141
2016-02-23,22.5,22.899999618530273,21.25,22.100000381469727,22.100000381469727,16699
2016-02-24,21.549999237060547,22.75,21.549999237060547,22.399999618530273,22.399999618530273,13783
2016-02-25,22.25,23.049999237060547,22.200000762939453,22.700000762939453,22.700000762939453,9055
2016-02-26,23.200000762939453,23.200000762939453,22.5,22.649999618530273,22.649999618530273,22219
2016-02-29,22.399999618530273,23.0,22.200000762939453,22.600000381469727,22.600000381469727,4873
2016-03-01,22.399999618530273,23.700000762939453,22.399999618530273,23.450000762939453,23.450000762939453,27881
2016-03-02,23.100000381469727,24.600000381469727,23.100000381469727,24.600000381469727,24.600000381469727,54363
2016-03-03,25.5,25.700000762939453,23.5,23.700000762939453,23.700000762939453,30010
2016-03-04,24.0,25.350000381469727,23.5,24.600000381469727,24.600000381469727,10649
2016-03-08,24.5,26.799999237060547,24.0,24.950000762939453,24.950000762939453,43011
2016-03-09,24.299999237060547,27.399999618530273,24.299999237060547,27.299999237060547,27.299999237060547,297264
2016-03-10,27.649999618530273,27.899999618530273,24.950000762939453,25.549999237060547,25.549999237060547,100497
2016-03-11,25.399999618530273,27.0,24.950000762939453,26.799999237060547,26.799999237060547,35568
2016-03-14,26.200000762939453,27.200000762939453,26.0,26.149999618530273,26.149999618530273,20582
2016-03-15,26.899999618530273,26.899999618530273,25.649999618530273,25.850000381469727,25.850000381469727,18174
2016-03-16,25.850000381469727,26.25,25.399999618530273,26.049999237060547,26.049999237060547,12853
2016-03-17,25.899999618530273,26.5,25.049999237060547,25.450000762939453,25.450000762939453,16373
2016-03-18,26.0,26.799999237060547,25.600000381469727,25.799999237060547,25.799999237060547,37617
2016-03-21,24.5,26.75,24.5,26.450000762939453,26.450000762939453,82307
2016-03-22,26.549999237060547,26.549999237060547,25.5,26.100000381469727,26.100000381469727,15782
2016-03-23,25.200000762939453,26.0,25.200000762939453,25.5,25.5,9021
2016-03-28,25.399999618530273,25.700000762939453,25.0,25.399999618530273,25.399999618530273,5021
2016-03-29,24.600000381469727,25.200000762939453,24.549999237060547,24.899999618530273,24.899999618530273,9728
2016-03-30,24.5,26.399999618530273,24.5,25.700000762939453,25.700000762939453,17008
2016-03-31,25.100000381469727,26.600000381469727,25.0,25.649999618530273,25.649999618530273,62206
2016-04-01,25.0,27.0,24.600000381469727,25.549999237060547,25.549999237060547,74754
2016-04-04,25.600000381469727,25.950000762939453,25.0,25.649999618530273,25.649999618530273,4052
2016-04-05,28.899999618530273,28.899999618530273,25.200000762939453,25.850000381469727,25.850000381469727,15666
2016-04-06,25.600000381469727,26.5,25.5,26.149999618530273,26.149999618530273,14124
2016-04-07,25.549999237060547,25.549999237060547,23.450000762939453,25.0,25.0,70432
2016-04-08,25.049999237060547,26.149999618530273,24.950000762939453,25.149999618530273,25.149999618530273,12254
2016-04-11,25.100000381469727,25.149999618530273,24.149999618530273,24.25,24.25,4800
2016-04-12,24.299999237060547,24.75,24.200000762939453,24.25,24.25,4394
2016-04-13,24.700000762939453,24.700000762939453,23.700000762939453,23.850000381469727,23.850000381469727,18600
2016-04-18,22.049999237060547,24.549999237060547,22.049999237060547,23.350000381469727,23.350000381469727,17118
2016-04-20,22.899999618530273,24.299999237060547,22.850000381469727,23.799999237060547,23.799999237060547,16888
2016-04-21,23.899999618530273,24.75,23.5,23.5,23.5,13722
2016-04-22,23.299999237060547,24.0,23.299999237060547,23.700000762939453,23.700000762939453,18811
2016-04-25,23.399999618530273,23.75,22.049999237060547,23.5,23.5,16575
2016-04-26,24.5,24.5,21.799999237060547,22.850000381469727,22.850000381469727,13682
2016-04-27,23.25,24.0,23.0,23.450000762939453,23.450000762939453,18239
2016-04-28,24.799999237060547,24.799999237060547,22.299999237060547,22.75,22.75,17361
2016-04-29,23.100000381469727,23.149999618530273,22.5,22.850000381469727,22.850000381469727,11520
2016-05-02,23.100000381469727,23.100000381469727,22.0,22.450000762939453,22.450000762939453,24120
2016-05-03,23.0,23.5,22.600000381469727,22.799999237060547,22.799999237060547,2869
2016-05-04,23.0,23.0,22.600000381469727,22.799999237060547,22.799999237060547,2875
2016-05-05,22.549999237060547,23.399999618530273,22.399999618530273,22.850000381469727,22.850000381469727,8024
2016-05-06,22.5,22.75,22.450000762939453,22.549999237060547,22.549999237060547,11298
2016-05-09,23.0,24.5,22.649999618530273,23.049999237060547,23.049999237060547,16279
2016-05-10,23.899999618530273,24.950000762939453,22.799999237060547,23.850000381469727,23.850000381469727,32536
2016-05-11,24.399999618530273,24.399999618530273,22.799999237060547,23.25,23.25,7054
2016-05-12,24.100000381469727,24.100000381469727,23.100000381469727,23.799999237060547,23.799999237060547,4915
2016-05-13,23.549999237060547,24.0,23.049999237060547,23.25,23.25,2810
2016-05-16,23.0,23.600000381469727,22.899999618530273,23.600000381469727,23.600000381469727,1941
2016-05-17,23.399999618530273,23.700000762939453,23.399999618530273,23.600000381469727,23.600000381469727,12191
2016-05-18,23.100000381469727,23.700000762939453,22.5,23.100000381469727,23.100000381469727,15038
2016-05-19,23.899999618530273,23.899999618530273,21.049999237060547,21.600000381469727,21.600000381469727,21954
2016-05-20,21.700000762939453,22.049999237060547,21.700000762939453,21.899999618530273,21.899999618530273,5522
2016-05-23,21.899999618530273,22.5,21.899999618530273,22.200000762939453,22.200000762939453,2026
2016-05-24,23.0,26.200000762939453,23.0,24.600000381469727,24.600000381469727,109124
2016-05-25,25.200000762939453,25.200000762939453,24.100000381469727,24.5,24.5,14572
2016-05-26,23.850000381469727,24.950000762939453,22.649999618530273,23.450000762939453,23.450000762939453,16907
2016-05-27,23.049999237060547,24.549999237060547,19.799999237060547,22.950000762939453,22.950000762939453,224294
2016-05-30,23.399999618530273,24.0,22.649999618530273,23.600000381469727,23.600000381469727,31487
2016-05-31,23.700000762939453,23.700000762939453,22.799999237060547,22.950000762939453,22.950000762939453,20491
2016-06-01,23.450000762939453,24.850000381469727,22.450000762939453,24.549999237060547,24.549999237060547,40469
2016-06-02,24.950000762939453,25.5,23.399999618530273,24.75,24.75,49492
2016-06-03,25.350000381469727,25.350000381469727,24.100000381469727,24.200000762939453,24.200000762939453,14356
2016-06-06,24.299999237060547,25.950000762939453,23.549999237060547,24.799999237060547,24.799999237060547,31350
2016-06-07,25.25,25.25,24.399999618530273,24.5,24.5,7604
2016-06-08,24.950000762939453,24.950000762939453,24.100000381469727,24.5,24.5,5412
2016-06-09,24.299999237060547,25.200000762939453,24.25,24.799999237060547,24.799999237060547,10464
2016-06-10,24.850000381469727,24.850000381469727,24.0,24.450000762939453,24.450000762939453,43495
2016-06-13,24.450000762939453,24.450000762939453,23.600000381469727,23.850000381469727,23.850000381469727,4260
2016-06-14,23.950000762939453,24.450000762939453,23.950000762939453,24.0,24.0,10383
2016-06-15,24.149999618530273,26.0,23.799999237060547,25.649999618530273,25.649999618530273,92810
2016-06-16,25.149999618530273,25.600000381469727,24.600000381469727,25.100000381469727,25.100000381469727,13901
2016-06-17,24.850000381469727,25.700000762939453,24.600000381469727,25.350000381469727,25.350000381469727,14209
2016-06-20,25.100000381469727,25.600000381469727,25.0,25.049999237060547,25.049999237060547,5557
2016-06-21,24.899999618530273,25.200000762939453,24.549999237060547,24.950000762939453,24.950000762939453,30350
2016-06-22,24.75,25.25,24.600000381469727,24.649999618530273,24.649999618530273,6416
2016-06-23,24.549999237060547,24.899999618530273,24.399999618530273,24.549999237060547,24.549999237060547,4541
2016-06-24,24.299999237060547,24.799999237060547,23.25,24.350000381469727,24.350000381469727,12798
2016-06-27,24.450000762939453,24.850000381469727,24.25,24.350000381469727,24.350000381469727,2622
2016-06-28,24.350000381469727,24.450000762939453,24.0,24.049999237060547,24.049999237060547,3025
2016-06-29,24.049999237060547,24.200000762939453,23.850000381469727,24.0,24.0,5566
2016-06-30,25.950000762939453,27.850000381469727,24.5,26.049999237060547,26.049999237060547,80244
2016-07-01,26.549999237060547,27.299999237060547,25.899999618530273,26.25,26.25,39957
2016-07-04,26.399999618530273,26.950000762939453,26.200000762939453,26.350000381469727,26.350000381469727,16188
2016-07-05,26.049999237060547,26.299999237060547,25.75,25.850000381469727,25.850000381469727,15704
2016-07-07,25.200000762939453,26.25,25.200000762939453,25.649999618530273,25.649999618530273,9916
2016-07-08,25.549999237060547,25.899999618530273,25.299999237060547,25.5,25.5,3085
2016-07-11,25.299999237060547,26.200000762939453,25.299999237060547,25.850000381469727,25.850000381469727,13613
2016-07-12,25.799999237060547,26.5,25.5,26.100000381469727,26.100000381469727,27733
2016-07-13,25.850000381469727,26.100000381469727,25.700000762939453,25.700000762939453,25.700000762939453,6269
2016-07-14,25.600000381469727,26.299999237060547,25.5,25.700000762939453,25.700000762939453,12996
2016-07-15,25.850000381469727,26.149999618530273,25.399999618530273,25.5,25.5,5678
2016-07-18,25.850000381469727,26.0,24.799999237060547,25.100000381469727,25.100000381469727,12699
2016-07-19,25.049999237060547,25.799999237060547,24.200000762939453,24.399999618530273,24.399999618530273,30124
2016-07-20,24.25,24.5,24.25,24.299999237060547,24.299999237060547,3320
2016-07-21,24.100000381469727,24.799999237060547,24.0,24.049999237060547,24.049999237060547,7177
2016-07-22,24.049999237060547,25.399999618530273,23.700000762939453,24.399999618530273,24.399999618530273,34761
2016-07-25,24.5,24.799999237060547,23.850000381469727,24.100000381469727,24.100000381469727,27946
2016-07-26,24.5,24.5,23.75,24.100000381469727,24.100000381469727,14748
2016-07-27,24.100000381469727,24.649999618530273,23.799999237060547,24.0,24.0,12548
2016-07-28,24.100000381469727,24.5,23.850000381469727,23.950000762939453,23.950000762939453,8214
2016-07-29,23.700000762939453,24.100000381469727,23.700000762939453,23.799999237060547,23.799999237060547,3350
2016-08-01,24.350000381469727,24.350000381469727,23.75,23.850000381469727,23.850000381469727,6148
2016-08-02,23.649999618530273,24.0,23.600000381469727,23.799999237060547,23.799999237060547,10255
2016-08-03,24.0,24.0,23.549999237060547,23.549999237060547,23.549999237060547,3635
2016-08-04,23.950000762939453,24.5,23.600000381469727,23.899999618530273,23.899999618530273,10151
2016-08-05,23.899999618530273,24.0,23.549999237060547,23.649999618530273,23.649999618530273,8839
2016-08-08,23.950000762939453,24.0,23.549999237060547,23.649999618530273,23.649999618530273,7685
2016-08-09,23.549999237060547,23.850000381469727,23.549999237060547,23.700000762939453,23.700000762939453,1674
2016-08-10,23.5,24.899999618530273,23.450000762939453,23.600000381469727,23.600000381469727,15454
2016-08-11,23.549999237060547,24.0,23.0,23.25,23.25,6157
2016-08-12,23.399999618530273,23.649999618530273,23.299999237060547,23.5,23.5,2526
2016-08-16,23.899999618530273,23.899999618530273,23.149999618530273,23.399999618530273,23.399999618530273,3102
2016-08-17,23.950000762939453,23.950000762939453,23.100000381469727,23.149999618530273,23.149999618530273,10148
2016-08-18,23.600000381469727,23.600000381469727,22.25,22.75,22.75,14020
2016-08-19,23.0,23.5,22.5,22.700000762939453,22.700000762939453,17352
2016-08-22,23.25,24.5,22.700000762939453,23.549999237060547,23.549999237060547,13690
2016-08-23,23.950000762939453,23.950000762939453,22.899999618530273,23.299999237060547,23.299999237060547,15174
2016-08-24,23.100000381469727,24.0,23.100000381469727,23.950000762939453,23.950000762939453,8470
2016-08-25,23.200000762939453,26.399999618530273,23.200000762939453,25.049999237060547,25.049999237060547,74205
2016-08-26,25.0,26.0,24.950000762939453,25.649999618530273,25.649999618530273,35802
2016-08-29,24.700000762939453,25.549999237060547,24.350000381469727,24.700000762939453,24.700000762939453,13961
2016-08-30,24.149999618530273,24.850000381469727,24.149999618530273,24.5,24.5,22915
2016-08-31,24.5,24.5,24.0,24.149999618530273,24.149999618530273,15931
2016-09-01,24.100000381469727,24.600000381469727,23.700000762939453,23.850000381469727,23.850000381469727,18919
2016-09-02,26.399999618530273,26.399999618530273,23.75,23.799999237060547,23.799999237060547,17507
2016-09-06,24.5,25.0,23.700000762939453,24.75,24.75,19295
2016-09-07,24.950000762939453,28.799999237060547,24.950000762939453,27.200000762939453,27.200000762939453,140238
2016-09-08,27.0,28.799999237060547,26.350000381469727,27.950000762939453,27.950000762939453,157087
2016-09-09,26.75,27.0,25.100000381469727,26.049999237060547,26.049999237060547,76542
2016-09-12,25.149999618530273,27.100000381469727,24.850000381469727,25.5,25.5,27959
2016-09-14,25.049999237060547,28.950000762939453,24.850000381469727,26.799999237060547,26.799999237060547,134650
2016-09-15,27.75,27.75,26.100000381469727,26.75,26.75,26377
2016-09-16,26.299999237060547,29.649999618530273,26.100000381469727,27.399999618530273,27.399999618530273,170203
2016-09-19,27.100000381469727,27.950000762939453,27.100000381469727,27.649999618530273,27.649999618530273,19109
2016-09-20,27.149999618530273,27.25,26.049999237060547,26.399999618530273,26.399999618530273,33553
2016-09-21,26.75,26.75,25.799999237060547,25.850000381469727,25.850000381469727,18360
2016-09-22,26.100000381469727,28.649999618530273,26.100000381469727,26.950000762939453,26.950000762939453,99709
2016-09-23,27.299999237060547,27.299999237060547,26.0,26.399999618530273,26.399999618530273,39513
2016-09-26,26.75,27.149999618530273,26.600000381469727,26.649999618530273,26.649999618530273,19350
2016-09-27,27.200000762939453,27.25,25.649999618530273,25.850000381469727,25.850000381469727,43618
2016-09-28,26.5,26.899999618530273,26.049999237060547,26.100000381469727,26.100000381469727,24756
2016-09-29,26.850000381469727,26.850000381469727,24.399999618530273,25.100000381469727,25.100000381469727,64663
2016-09-30,26.0,26.0,25.0,25.5,25.5,6687
2016-10-03,25.0,26.5,25.0,25.549999237060547,25.549999237060547,13329
2016-10-04,25.299999237060547,26.600000381469727,25.25,26.299999237060547,26.299999237060547,12968
2016-10-05,26.049999237060547,27.049999237060547,25.75,26.0,26.0,50539
2016-10-06,26.5,26.700000762939453,23.799999237060547,24.649999618530273,24.649999618530273,105890
2016-10-07,25.5,27.299999237060547,25.0,26.0,26.0,172550
2016-10-10,26.649999618530273,29.0,26.450000762939453,27.049999237060547,27.049999237060547,519915
2016-10-13,27.200000762939453,28.25,26.5,27.399999618530273,27.399999618530273,81894
2016-10-14,28.0,30.0,27.700000762939453,28.600000381469727,28.600000381469727,128168
2016-10-17,29.5,29.600000381469727,27.950000762939453,28.200000762939453,28.200000762939453,59997
2016-10-18,28.0,28.399999618530273,27.649999618530273,28.049999237060547,28.049999237060547,23342
2016-10-19,28.0,29.0,27.399999618530273,28.049999237060547,28.049999237060547,33404
2016-10-20,28.600000381469727,28.600000381469727,27.600000381469727,27.75,27.75,11036
2016-10-21,27.899999618530273,28.25,27.5,27.649999618530273,27.649999618530273,5971
2016-10-24,28.0,28.75,27.700000762939453,27.899999618530273,27.899999618530273,24113
2016-10-25,28.350000381469727,29.600000381469727,27.899999618530273,29.100000381469727,29.100000381469727,58291
2016-10-26,29.0,29.0,28.0,28.25,28.25,24839
2016-10-27,28.0,28.700000762939453,28.0,28.299999237060547,28.299999237060547,17672
2016-10-28,28.399999618530273,28.450000762939453,28.0,28.149999618530273,28.149999618530273,5103
2016-11-01,28.149999618530273,30.25,28.149999618530273,29.899999618530273,29.899999618530273,94358
2016-11-02,29.299999237060547,31.0,29.200000762939453,30.049999237060547,30.049999237060547,96715
2016-11-03,29.75,35.349998474121094,29.75,34.099998474121094,34.099998474121094,392475
2016-11-04,33.20000076293945,37.70000076293945,32.04999923706055,32.5,32.5,112279
2016-11-07,33.79999923706055,34.04999923706055,32.0,32.650001525878906,32.650001525878906,56561
2016-11-08,32.650001525878906,33.54999923706055,32.04999923706055,32.75,32.75,30853
2016-11-09,29.850000381469727,32.20000076293945,28.25,31.799999237060547,31.799999237060547,69893
2016-11-10,33.79999923706055,33.79999923706055,31.049999237060547,31.450000762939453,31.450000762939453,28481
2016-11-11,30.700000762939453,31.200000762939453,29.299999237060547,29.649999618530273,29.649999618530273,41574
2016-11-15,30.0,30.899999618530273,28.149999618530273,28.600000381469727,28.600000381469727,29486
2016-11-16,28.5,29.5,28.100000381469727,28.299999237060547,28.299999237060547,12620
2016-11-17,28.600000381469727,28.75,27.0,27.200000762939453,27.200000762939453,14230
2016-11-18,27.75,27.75,26.799999237060547,27.200000762939453,27.200000762939453,10454
2016-11-21,27.299999237060547,27.5,25.200000762939453,26.299999237060547,26.299999237060547,19855
2016-11-22,27.450000762939453,28.049999237060547,26.5,27.850000381469727,27.850000381469727,9714
2016-11-23,28.0,29.200000762939453,27.850000381469727,29.0,29.0,15799
2016-11-24,28.549999237060547,29.0,28.549999237060547,28.899999618530273,28.899999618530273,5029
2016-11-25,29.25,29.25,28.799999237060547,28.899999618530273,28.899999618530273,4818
2016-11-28,29.100000381469727,29.350000381469727,28.649999618530273,28.850000381469727,28.850000381469727,3352
2016-11-29,29.549999237060547,30.899999618530273,29.549999237060547,29.899999618530273,29.899999618530273,19202
2016-11-30,30.75,33.0,30.700000762939453,31.649999618530273,31.649999618530273,52410
2016-12-01,35.70000076293945,35.70000076293945,29.5,29.600000381469727,29.600000381469727,27894
2016-12-02,32.29999923706055,32.29999923706055,28.799999237060547,29.25,29.25,11459
2016-12-05,29.5,29.600000381469727,28.0,28.299999237060547,28.299999237060547,173562
2016-12-06,29.350000381469727,32.0,29.0,30.0,30.0,52682
2016-12-07,30.0,30.450000762939453,29.200000762939453,29.299999237060547,29.299999237060547,10485
2016-12-08,33.79999923706055,35.150001525878906,33.150001525878906,35.150001525878906,35.150001525878906,1252738
2016-12-09,36.400001525878906,36.5,34.400001525878906,35.150001525878906,35.150001525878906,392861
2016-12-12,34.45000076293945,34.95000076293945,33.54999923706055,33.95000076293945,33.95000076293945,83119
2016-12-13,33.900001525878906,34.95000076293945,32.099998474121094,32.79999923706055,32.79999923706055,89715
2016-12-14,32.75,37.0,32.20000076293945,34.849998474121094,34.849998474121094,226430
2016-12-15,33.79999923706055,37.29999923706055,33.75,36.04999923706055,36.04999923706055,169264
2016-12-16,36.75,37.650001525878906,35.150001525878906,35.349998474121094,35.349998474121094,84463
2016-12-19,36.04999923706055,36.5,35.0,35.099998474121094,35.099998474121094,28543
2016-12-20,35.5,35.900001525878906,33.70000076293945,33.95000076293945,33.95000076293945,32517
2016-12-21,34.70000076293945,34.70000076293945,33.599998474121094,33.75,33.75,23443
2016-12-22,34.95000076293945,34.95000076293945,32.849998474121094,33.0,33.0,28338
2016-12-23,33.099998474121094,33.5,32.349998474121094,33.04999923706055,33.04999923706055,24551
2016-12-26,32.54999923706055,34.0,32.29999923706055,32.900001525878906,32.900001525878906,25602
2016-12-27,32.70000076293945,33.79999923706055,31.899999618530273,32.70000076293945,32.70000076293945,54164
2016-12-28,33.45000076293945,34.0,32.900001525878906,33.04999923706055,33.04999923706055,60190
2016-12-29,33.45000076293945,34.25,33.099998474121094,33.900001525878906,33.900001525878906,13085
2016-12-30,34.45000076293945,35.25,34.29999923706055,34.599998474121094,34.599998474121094,32843
