Date,Open,High,Low,Close,Adj Close,Volume
2009-01-02,15.25,16.389999389648438,15.25,15.970000267028809,15.970000267028809,19096
2009-01-05,15.5,15.899999618530273,15.0,15.609999656677246,15.609999656677246,3810
2009-01-06,15.5,15.800000190734863,15.069999694824219,15.289999961853027,15.289999961853027,3480
2009-01-07,14.949999809265137,16.049999237060547,14.199999809265137,14.880000114440918,14.880000114440918,3399
2009-01-09,14.0,14.880000114440918,13.75,14.449999809265137,14.449999809265137,5938
2009-01-12,14.050000190734863,14.100000381469727,14.0,14.100000381469727,14.100000381469727,7902
2009-01-13,14.010000228881836,14.100000381469727,14.010000228881836,14.100000381469727,14.100000381469727,320
2009-01-14,14.050000190734863,14.350000381469727,14.0,14.029999732971191,14.029999732971191,6964
2009-01-15,13.600000381469727,14.430000305175781,13.600000381469727,14.029999732971191,14.029999732971191,7826
2009-01-16,13.75,14.350000381469727,13.75,13.859999656677246,13.859999656677246,1648
2009-01-19,13.8100004196167,13.8100004196167,13.529999732971191,13.649999618530273,13.649999618530273,1330
2009-01-20,13.430000305175781,13.890000343322754,13.40999984741211,13.520000457763672,13.520000457763672,1505
2009-01-21,13.5,13.800000190734863,13.5,13.609999656677246,13.609999656677246,1489
2009-01-22,13.050000190734863,13.050000190734863,12.609999656677246,12.699999809265137,12.699999809265137,21730
2009-01-23,13.75,13.949999809265137,12.319999694824219,12.5,12.5,14242
2009-01-27,12.630000114440918,12.920000076293945,12.5,12.6899995803833,12.6899995803833,2789
2009-01-28,12.899999618530273,12.899999618530273,12.399999618530273,12.600000381469727,12.600000381469727,1352
2009-01-29,12.520000457763672,12.619999885559082,12.520000457763672,12.619999885559082,12.619999885559082,125
2009-01-30,13.0,13.0,12.199999809265137,12.829999923706055,12.829999923706055,6533
2009-02-02,12.949999809265137,13.25,12.949999809265137,13.0600004196167,13.0600004196167,6703
2009-02-03,12.819999694824219,12.930000305175781,12.5,12.899999618530273,12.899999618530273,3659
2009-02-04,12.5,13.239999771118164,12.5,13.0,13.0,5181
2009-02-05,12.619999885559082,12.800000190734863,12.5,12.75,12.75,967
2009-02-06,12.729999542236328,13.010000228881836,12.729999542236328,12.829999923706055,12.829999923706055,3356
2009-02-09,13.0,13.699999809265137,12.800000190734863,12.930000305175781,12.930000305175781,5051
2009-02-10,12.859999656677246,13.100000381469727,12.630000114440918,12.680000305175781,12.680000305175781,3513
2009-02-11,12.949999809265137,13.25,12.949999809265137,13.25,13.25,8172
2009-02-12,13.699999809265137,15.899999618530273,13.699999809265137,15.5,15.5,172648
2009-02-13,15.489999771118164,15.489999771118164,14.800000190734863,14.880000114440918,14.880000114440918,33565
2009-02-16,14.75,14.789999961853027,13.850000381469727,14.029999732971191,14.029999732971191,4938
2009-02-17,14.449999809265137,14.449999809265137,13.270000457763672,13.329999923706055,13.329999923706055,5184
2009-02-18,11.5,13.6899995803833,11.5,13.300000190734863,13.300000190734863,6334
2009-02-19,12.199999809265137,13.479999542236328,12.199999809265137,13.1899995803833,13.1899995803833,6174
2009-02-20,12.699999809265137,12.989999771118164,12.449999809265137,12.510000228881836,12.510000228881836,6639
2009-02-24,12.399999618530273,12.850000381469727,12.149999618530273,12.84000015258789,12.84000015258789,8729
2009-02-25,13.199999809265137,13.199999809265137,12.300000190734863,12.449999809265137,12.449999809265137,6115
2009-02-26,12.600000381469727,12.899999618530273,12.25,12.779999732971191,12.779999732971191,3429
2009-02-27,12.399999618530273,12.5,12.149999618530273,12.1899995803833,12.1899995803833,4363
2009-03-02,11.859999656677246,12.699999809265137,11.859999656677246,12.609999656677246,12.609999656677246,4307
2009-03-03,14.0,14.0,12.010000228881836,12.300000190734863,12.300000190734863,2927
2009-03-04,12.600000381469727,12.699999809265137,12.109999656677246,12.220000267028809,12.220000267028809,2279
2009-03-05,12.0600004196167,12.100000381469727,11.569999694824219,11.59000015258789,11.59000015258789,2608
2009-03-06,11.899999618530273,11.899999618530273,10.949999809265137,11.600000381469727,11.600000381469727,8410
2009-03-09,11.399999618530273,11.699999809265137,11.25,11.279999732971191,11.279999732971191,3291
2009-03-12,11.100000381469727,11.899999618530273,11.100000381469727,11.34000015258789,11.34000015258789,7575
2009-03-13,11.109999656677246,12.199999809265137,11.100000381469727,11.6899995803833,11.6899995803833,2906
2009-03-16,11.5,12.09000015258789,11.5,12.0,12.0,580
2009-03-17,11.510000228881836,12.399999618530273,11.510000228881836,11.960000038146973,11.960000038146973,2029
2009-03-18,12.449999809265137,13.0,11.920000076293945,12.670000076293945,12.670000076293945,3978
2009-03-19,13.399999618530273,13.449999809265137,12.300000190734863,12.390000343322754,12.390000343322754,3498
2009-03-20,12.199999809265137,12.600000381469727,12.149999618530273,12.529999732971191,12.529999732971191,1500
2009-03-23,12.989999771118164,13.0,12.5,12.569999694824219,12.569999694824219,9101
2009-03-24,12.699999809265137,12.890000343322754,12.25,12.539999961853027,12.539999961853027,1842
2009-03-25,12.199999809265137,12.449999809265137,12.100000381469727,12.170000076293945,12.170000076293945,12219
2009-03-26,12.15999984741211,12.4399995803833,11.800000190734863,12.09000015258789,12.09000015258789,8318
2009-03-27,12.5,13.149999618530273,12.260000228881836,12.930000305175781,12.930000305175781,10734
2009-03-30,13.0,13.0,12.15999984741211,12.260000228881836,12.260000228881836,3041
2009-03-31,12.119999885559082,12.739999771118164,12.100000381469727,12.600000381469727,12.600000381469727,2275
2009-04-01,12.989999771118164,13.449999809265137,12.510000228881836,13.079999923706055,13.079999923706055,11229
2009-04-02,13.600000381469727,13.899999618530273,12.600000381469727,13.239999771118164,13.239999771118164,11187
2009-04-06,13.550000190734863,13.600000381469727,13.0600004196167,13.270000457763672,13.270000457763672,5267
2009-04-08,13.600000381469727,14.279999732971191,13.149999618530273,13.859999656677246,13.859999656677246,16543
2009-04-09,13.5600004196167,14.5,13.520000457763672,14.479999542236328,14.479999542236328,13782
2009-04-13,13.550000190734863,15.649999618530273,13.550000190734863,14.890000343322754,14.890000343322754,29302
2009-04-15,15.0,16.5,14.75,15.789999961853027,15.789999961853027,34533
2009-04-16,15.949999809265137,15.949999809265137,15.25,15.5,15.5,41925
2009-04-17,15.5,17.5,15.5,15.529999732971191,15.529999732971191,24308
2009-04-20,15.520000457763672,15.949999809265137,15.5,15.649999618530273,15.649999618530273,11585
2009-04-21,15.979999542236328,16.25,15.5,15.899999618530273,15.899999618530273,17822
2009-04-22,15.760000228881836,16.350000381469727,15.699999809265137,15.699999809265137,15.699999809265137,36878
2009-04-23,16.950000762939453,16.950000762939453,15.699999809265137,16.020000457763672,16.020000457763672,9772
2009-04-24,16.389999389648438,18.200000762939453,16.0,17.15999984741211,17.15999984741211,47486
2009-04-27,17.700000762939453,18.049999237060547,17.049999237060547,17.049999237060547,17.049999237060547,37355
2009-04-28,16.799999237060547,17.100000381469727,16.600000381469727,17.0,17.0,24719
2009-04-29,17.0,17.0,16.3799991607666,16.5,16.5,5167
2009-05-04,16.399999618530273,16.950000762939453,16.399999618530273,16.850000381469727,16.850000381469727,7908
2009-05-05,16.549999237060547,18.0,16.299999237060547,17.049999237060547,17.049999237060547,55362
2009-05-06,16.950000762939453,17.399999618530273,16.5,16.799999237060547,16.799999237060547,15030
2009-05-07,17.100000381469727,17.100000381469727,16.0,16.25,16.25,3233
2009-05-08,16.149999618530273,16.899999618530273,16.100000381469727,16.399999618530273,16.399999618530273,6533
2009-05-11,16.75,17.350000381469727,16.149999618530273,16.399999618530273,16.399999618530273,17480
2009-05-12,16.200000762939453,16.5,15.649999618530273,15.899999618530273,15.899999618530273,2044
2009-05-13,16.299999237060547,16.350000381469727,15.899999618530273,16.049999237060547,16.049999237060547,3577
2009-05-14,15.5,16.399999618530273,15.449999809265137,16.100000381469727,16.100000381469727,1214
2009-05-15,16.100000381469727,16.25,15.399999618530273,15.600000381469727,15.600000381469727,12400
2009-05-19,17.399999618530273,18.5,16.200000762939453,16.850000381469727,16.850000381469727,59864
2009-05-20,17.5,18.5,17.0,18.149999618530273,18.149999618530273,34288
2009-05-21,18.450000762939453,21.0,17.899999618530273,18.600000381469727,18.600000381469727,46392
2009-05-22,19.299999237060547,20.0,18.649999618530273,19.5,19.5,30608
2009-05-25,20.0,23.399999618530273,19.5,23.399999618530273,23.399999618530273,298450
2009-05-26,24.0,25.700000762939453,22.75,24.200000762939453,24.200000762939453,402720
2009-05-27,25.799999237060547,26.600000381469727,24.0,24.200000762939453,24.200000762939453,216218
2009-05-28,24.0,24.5,23.5,23.899999618530273,23.899999618530273,46969
2009-05-29,24.0,24.25,23.399999618530273,23.649999618530273,23.649999618530273,66795
2009-06-01,24.5,24.5,23.25,23.549999237060547,23.549999237060547,30441
2009-06-02,24.149999618530273,24.149999618530273,22.649999618530273,23.200000762939453,23.200000762939453,54511
2009-06-03,23.5,24.899999618530273,23.0,23.25,23.25,161902
2009-06-04,23.899999618530273,23.899999618530273,23.200000762939453,23.549999237060547,23.549999237060547,69493
2009-06-05,23.899999618530273,23.899999618530273,22.850000381469727,22.950000762939453,22.950000762939453,57991
2009-06-08,23.299999237060547,23.299999237060547,21.0,21.25,21.25,34590
2009-06-09,20.450000762939453,21.5,19.200000762939453,20.799999237060547,20.799999237060547,20410
2009-06-10,20.649999618530273,21.5,20.5,20.75,20.75,27086
2009-06-11,21.0,21.5,20.200000762939453,20.450000762939453,20.450000762939453,16970
2009-06-12,20.700000762939453,20.700000762939453,19.700000762939453,19.950000762939453,19.950000762939453,19497
2009-06-15,20.0,20.200000762939453,19.0,19.100000381469727,19.100000381469727,8419
2009-06-16,19.0,20.0,19.0,19.549999237060547,19.549999237060547,18368
2009-06-17,19.25,19.700000762939453,17.75,18.450000762939453,18.450000762939453,35526
2009-06-18,18.100000381469727,19.200000762939453,17.75,18.399999618530273,18.399999618530273,8088
2009-06-19,19.25,19.25,17.149999618530273,17.450000762939453,17.450000762939453,8755
2009-06-22,17.649999618530273,17.950000762939453,17.350000381469727,17.649999618530273,17.649999618530273,7838
2009-06-23,18.399999618530273,18.399999618530273,17.049999237060547,17.5,17.5,20444
2009-06-24,17.5,18.799999237060547,17.399999618530273,18.0,18.0,8771
2009-06-25,19.399999618530273,19.399999618530273,17.600000381469727,18.0,18.0,7213
2009-06-26,17.700000762939453,18.0,17.25,17.799999237060547,17.799999237060547,6628
2009-06-29,18.950000762939453,18.950000762939453,17.600000381469727,17.700000762939453,17.700000762939453,14572
2009-06-30,17.700000762939453,17.700000762939453,16.899999618530273,17.0,17.0,12057
2009-07-01,17.0,17.25,16.5,16.799999237060547,16.799999237060547,8139
2009-07-02,16.899999618530273,17.950000762939453,16.600000381469727,16.700000762939453,16.700000762939453,9132
2009-07-03,16.5,16.850000381469727,16.200000762939453,16.700000762939453,16.700000762939453,5258
2009-07-06,17.0,17.25,15.75,16.049999237060547,16.049999237060547,8716
2009-07-07,16.899999618530273,16.899999618530273,15.600000381469727,16.0,16.0,5530
2009-07-08,15.699999809265137,16.5,15.100000381469727,15.5,15.5,3667
2009-07-09,15.5,16.25,15.0,15.699999809265137,15.699999809265137,12193
2009-07-10,15.5,16.299999237060547,15.25,15.550000190734863,15.550000190734863,2824
2009-07-13,15.25,15.5,14.0,15.399999618530273,15.399999618530273,6597
2009-07-14,15.199999809265137,15.699999809265137,15.199999809265137,15.550000190734863,15.550000190734863,3714
2009-07-15,15.300000190734863,17.149999618530273,15.25,16.600000381469727,16.600000381469727,14930
2009-07-16,16.5,17.0,16.0,16.299999237060547,16.299999237060547,8128
2009-07-17,16.5,16.899999618530273,16.25,16.299999237060547,16.299999237060547,5678
2009-07-20,16.75,17.350000381469727,16.600000381469727,16.799999237060547,16.799999237060547,13299
2009-07-21,16.299999237060547,16.799999237060547,16.200000762939453,16.450000762939453,16.450000762939453,3278
2009-07-22,16.0,17.0,16.0,16.450000762939453,16.450000762939453,9977
2009-07-23,18.25,18.25,16.399999618530273,16.549999237060547,16.549999237060547,7857
2009-07-24,16.5,17.149999618530273,16.5,16.799999237060547,16.799999237060547,9996
2009-07-27,17.049999237060547,17.649999618530273,17.0,17.200000762939453,17.200000762939453,11504
2009-07-28,17.149999618530273,19.850000381469727,17.0,19.200000762939453,19.200000762939453,194496
2009-07-29,19.299999237060547,19.5,18.0,18.350000381469727,18.350000381469727,55069
2009-07-30,18.5,18.5,18.0,18.25,18.25,10186
2009-07-31,18.399999618530273,18.799999237060547,17.75,18.100000381469727,18.100000381469727,20589
2009-08-03,17.75,18.399999618530273,17.549999237060547,17.700000762939453,17.700000762939453,18591
2009-08-04,18.049999237060547,19.25,17.899999618530273,18.0,18.0,50388
2009-08-05,18.299999237060547,18.600000381469727,17.75,18.200000762939453,18.200000762939453,21210
2009-08-06,18.0,18.75,17.799999237060547,17.799999237060547,17.799999237060547,15770
2009-08-07,17.0,17.899999618530273,16.799999237060547,17.049999237060547,17.049999237060547,13612
2009-08-10,16.799999237060547,17.200000762939453,16.299999237060547,16.549999237060547,16.549999237060547,8896
2009-08-11,16.700000762939453,16.850000381469727,16.399999618530273,16.450000762939453,16.450000762939453,14202
2009-08-12,16.75,17.25,15.75,16.25,16.25,265965
2009-08-13,16.75,18.0,16.649999618530273,17.850000381469727,17.850000381469727,38081
2009-08-14,17.700000762939453,19.700000762939453,17.600000381469727,18.450000762939453,18.450000762939453,304013
2009-08-17,18.299999237060547,18.850000381469727,17.450000762939453,17.600000381469727,17.600000381469727,24771
2009-08-18,17.950000762939453,18.350000381469727,17.549999237060547,17.700000762939453,17.700000762939453,8159
2009-08-19,17.649999618530273,18.399999618530273,17.25,17.299999237060547,17.299999237060547,21091
2009-08-20,17.399999618530273,18.399999618530273,17.350000381469727,17.799999237060547,17.799999237060547,27275
2009-08-21,17.450000762939453,18.200000762939453,17.450000762939453,17.850000381469727,17.850000381469727,11863
2009-08-24,17.899999618530273,18.75,17.899999618530273,18.149999618530273,18.149999618530273,20971
2009-08-25,18.399999618530273,18.700000762939453,18.049999237060547,18.450000762939453,18.450000762939453,19596
2009-08-26,19.0,21.75,18.350000381469727,19.850000381469727,19.850000381469727,463963
2009-08-27,20.0,20.149999618530273,19.100000381469727,19.149999618530273,19.149999618530273,56171
2009-08-28,19.950000762939453,19.950000762939453,18.549999237060547,18.950000762939453,18.950000762939453,76689
2009-08-31,19.0,19.75,18.75,19.149999618530273,19.149999618530273,53328
2009-09-01,19.0,19.450000762939453,18.600000381469727,18.700000762939453,18.700000762939453,33664
2009-09-02,18.799999237060547,19.299999237060547,18.25,18.799999237060547,18.799999237060547,41750
2009-09-03,18.649999618530273,19.75,18.649999618530273,18.850000381469727,18.850000381469727,53529
2009-09-04,19.0,21.700000762939453,18.700000762939453,21.049999237060547,21.049999237060547,362529
2009-09-07,22.0,22.100000381469727,19.350000381469727,19.950000762939453,19.950000762939453,475040
2009-09-08,20.100000381469727,20.799999237060547,19.649999618530273,19.850000381469727,19.850000381469727,136291
2009-09-09,20.049999237060547,20.600000381469727,19.5,19.649999618530273,19.649999618530273,52016
2009-09-10,19.799999237060547,20.200000762939453,19.450000762939453,19.5,19.5,43802
2009-09-11,19.100000381469727,19.600000381469727,18.549999237060547,18.649999618530273,18.649999618530273,43869
2009-09-14,18.899999618530273,18.899999618530273,18.200000762939453,18.600000381469727,18.600000381469727,30464
2009-09-15,18.450000762939453,19.799999237060547,18.450000762939453,19.100000381469727,19.100000381469727,88281
2009-09-16,19.75,19.75,18.950000762939453,19.100000381469727,19.100000381469727,45139
2009-09-17,19.5,19.5,18.700000762939453,18.899999618530273,18.899999618530273,31775
2009-09-18,19.049999237060547,19.049999237060547,18.0,18.649999618530273,18.649999618530273,61011
2009-09-22,19.5,19.899999618530273,18.75,18.850000381469727,18.850000381469727,61130
2009-09-23,19.100000381469727,19.5,18.700000762939453,18.850000381469727,18.850000381469727,69532
2009-09-24,19.200000762939453,19.200000762939453,18.399999618530273,18.700000762939453,18.700000762939453,30462
2009-09-25,18.549999237060547,19.299999237060547,18.549999237060547,18.75,18.75,53594
2009-09-29,19.100000381469727,19.700000762939453,18.200000762939453,19.350000381469727,19.350000381469727,57841
2009-09-30,19.5,19.799999237060547,18.700000762939453,18.799999237060547,18.799999237060547,49039
2009-10-01,19.25,19.25,18.549999237060547,18.649999618530273,18.649999618530273,34654
2009-10-05,18.950000762939453,19.0,18.149999618530273,18.25,18.25,27915
2009-10-06,18.25,18.5,17.549999237060547,18.100000381469727,18.100000381469727,22203
2009-10-07,18.100000381469727,18.5,18.0,18.149999618530273,18.149999618530273,19662
2009-10-08,18.200000762939453,18.399999618530273,17.850000381469727,18.0,18.0,19579
2009-10-09,18.299999237060547,18.450000762939453,17.700000762939453,17.950000762939453,17.950000762939453,34708
2009-10-12,18.200000762939453,18.200000762939453,17.450000762939453,17.549999237060547,17.549999237060547,28950
2009-10-14,18.0,18.100000381469727,17.5,17.600000381469727,17.600000381469727,41605
2009-10-15,18.0,18.0,17.5,17.700000762939453,17.700000762939453,20150
2009-10-16,18.5,18.5,17.549999237060547,17.649999618530273,17.649999618530273,26277
2009-10-20,18.0,18.200000762939453,17.700000762939453,17.75,17.75,16475
2009-10-21,18.350000381469727,18.350000381469727,17.5,17.549999237060547,17.549999237060547,29228
2009-10-22,17.450000762939453,18.100000381469727,17.450000762939453,17.700000762939453,17.700000762939453,13559
2009-10-23,17.700000762939453,17.75,17.0,17.049999237060547,17.049999237060547,28039
2009-10-26,17.0,17.0,16.5,16.850000381469727,16.850000381469727,14192
2009-10-27,16.700000762939453,17.0,15.899999618530273,16.049999237060547,16.049999237060547,29417
2009-10-28,16.5,16.5,15.699999809265137,16.100000381469727,16.100000381469727,7993
2009-10-29,16.0,16.399999618530273,15.149999618530273,16.0,16.0,13557
2009-10-30,16.450000762939453,16.700000762939453,16.0,16.0,16.0,14614
2009-11-03,15.25,15.5,14.550000190734863,14.75,14.75,11076
2009-11-04,14.899999618530273,14.949999809265137,14.100000381469727,14.75,14.75,15207
2009-11-05,14.699999809265137,15.699999809265137,14.699999809265137,15.5,15.5,11480
2009-11-06,15.600000381469727,16.0,15.300000190734863,15.550000190734863,15.550000190734863,11701
2009-11-09,16.100000381469727,16.399999618530273,15.5,16.100000381469727,16.100000381469727,32237
2009-11-10,15.0,16.25,15.0,15.699999809265137,15.699999809265137,8701
2009-11-11,16.0,16.0,15.600000381469727,15.800000190734863,15.800000190734863,10037
2009-11-12,16.200000762939453,17.450000762939453,15.649999618530273,16.399999618530273,16.399999618530273,56169
2009-11-13,16.450000762939453,18.399999618530273,16.450000762939453,16.950000762939453,16.950000762939453,114883
2009-11-16,17.700000762939453,17.700000762939453,16.799999237060547,16.899999618530273,16.899999618530273,24150
2009-11-17,17.100000381469727,17.149999618530273,16.549999237060547,16.649999618530273,16.649999618530273,12769
2009-11-18,16.75,17.600000381469727,16.75,17.049999237060547,17.049999237060547,26067
2009-11-19,17.100000381469727,17.100000381469727,16.5,16.5,16.5,17222
2009-11-20,16.5,17.0,16.5,16.899999618530273,16.899999618530273,13040
2009-11-23,16.5,16.799999237060547,16.450000762939453,16.5,16.5,15218
2009-11-24,16.600000381469727,16.600000381469727,16.100000381469727,16.450000762939453,16.450000762939453,6652
2009-11-25,16.899999618530273,16.899999618530273,16.5,16.700000762939453,16.700000762939453,22174
2009-11-26,16.700000762939453,17.0,16.700000762939453,16.700000762939453,16.700000762939453,7890
2009-11-27,16.5,17.75,16.0,17.450000762939453,17.450000762939453,82436
2009-11-30,17.799999237060547,20.899999618530273,17.799999237060547,20.899999618530273,20.899999618530273,669034
2009-12-01,22.600000381469727,25.049999237060547,20.0,25.049999237060547,25.049999237060547,1652361
2009-12-02,26.0,27.549999237060547,26.0,27.549999237060547,27.549999237060547,1158874
2009-12-03,28.899999618530273,30.299999237060547,28.899999618530273,30.299999237060547,30.299999237060547,245390
2009-12-04,33.29999923706055,33.29999923706055,27.600000381469727,28.200000762939453,28.200000762939453,1069840
2009-12-07,28.350000381469727,31.0,25.549999237060547,30.950000762939453,30.950000762939453,1366310
2009-12-08,33.900001525878906,34.0,33.900001525878906,34.0,34.0,111762
2009-12-09,35.45000076293945,35.70000076293945,35.45000076293945,35.70000076293945,35.70000076293945,56373
2009-12-10,37.45000076293945,37.45000076293945,33.95000076293945,37.45000076293945,37.45000076293945,619422
2009-12-11,39.29999923706055,39.29999923706055,39.29999923706055,39.29999923706055,39.29999923706055,80533
2009-12-14,41.25,41.25,37.349998474121094,38.0,38.0,140381
2009-12-15,39.79999923706055,39.900001525878906,36.849998474121094,37.5,37.5,127005
2009-12-16,37.0,39.349998474121094,35.75,37.150001525878906,37.150001525878906,76337
2009-12-17,39.0,39.0,37.5,39.0,39.0,186139
2009-12-18,40.45000076293945,40.95000076293945,40.0,40.95000076293945,40.95000076293945,159541
2009-12-21,39.400001525878906,42.95000076293945,38.95000076293945,42.95000076293945,42.95000076293945,227293
2009-12-22,45.0,45.04999923706055,45.0,45.04999923706055,45.04999923706055,92146
2009-12-23,47.29999923706055,47.29999923706055,47.29999923706055,47.29999923706055,47.29999923706055,152566
2009-12-24,49.650001525878906,49.650001525878906,47.150001525878906,49.04999923706055,49.04999923706055,327684
2009-12-29,51.5,51.5,51.5,51.5,51.5,110072
2009-12-30,53.79999923706055,54.04999923706055,48.95000076293945,49.900001525878906,49.900001525878906,154714
