Date,Open,High,Low,Close,Adj Close,Volume
2017-01-02,35.400001525878906,36.150001525878906,34.70000076293945,35.29999923706055,35.29999923706055,26093
2017-01-03,35.0,35.70000076293945,35.0,35.099998474121094,35.099998474121094,6757
2017-01-04,35.099998474121094,37.5,35.099998474121094,37.29999923706055,37.29999923706055,120333
2017-01-05,38.75,39.25,31.0,38.70000076293945,38.70000076293945,156291
2017-01-06,38.650001525878906,39.150001525878906,37.5,37.79999923706055,37.79999923706055,40991
2017-01-09,36.349998474121094,38.75,36.29999923706055,38.0,38.0,21706
2017-01-10,38.5,38.5,37.5,38.0,38.0,20160
2017-01-11,41.75,41.75,38.54999923706055,39.95000076293945,39.95000076293945,146223
2017-01-12,41.70000076293945,41.70000076293945,38.25,38.5,38.5,45076
2017-01-13,38.25,38.70000076293945,38.0,38.20000076293945,38.20000076293945,41421
2017-01-16,39.599998474121094,39.79999923706055,38.45000076293945,38.599998474121094,38.599998474121094,17380
2017-01-17,38.54999923706055,38.75,37.54999923706055,37.849998474121094,37.849998474121094,11607
2017-01-18,37.5,40.25,37.0,38.29999923706055,38.29999923706055,91772
2017-01-19,38.75,39.0,37.79999923706055,38.349998474121094,38.349998474121094,29913
2017-01-20,38.0,39.0,37.25,37.5,37.5,30883
2017-01-23,37.650001525878906,38.04999923706055,37.0,37.5,37.5,22669
2017-01-24,37.70000076293945,37.79999923706055,36.95000076293945,37.04999923706055,37.04999923706055,14931
2017-01-25,35.5,37.70000076293945,35.5,36.650001525878906,36.650001525878906,62902
2017-01-27,36.95000076293945,37.29999923706055,35.70000076293945,36.150001525878906,36.150001525878906,21975
2017-01-30,35.849998474121094,36.45000076293945,31.5,32.349998474121094,32.349998474121094,98277
2017-01-31,32.349998474121094,34.04999923706055,32.349998474121094,32.900001525878906,32.900001525878906,45585
2017-02-01,35.5,35.5,32.0,33.150001525878906,33.150001525878906,20788
2017-02-02,32.79999923706055,34.20000076293945,32.79999923706055,33.45000076293945,33.45000076293945,13883
2017-02-03,33.150001525878906,33.95000076293945,33.04999923706055,33.650001525878906,33.650001525878906,14431
2017-02-06,34.349998474121094,35.900001525878906,33.900001525878906,34.70000076293945,34.70000076293945,60072
2017-02-07,34.95000076293945,35.45000076293945,34.45000076293945,34.79999923706055,34.79999923706055,15299
2017-02-08,34.95000076293945,35.29999923706055,34.20000076293945,34.349998474121094,34.349998474121094,9284
2017-02-09,35.0,37.25,34.20000076293945,36.349998474121094,36.349998474121094,119821
2017-02-10,37.400001525878906,37.400001525878906,35.75,36.0,36.0,97169
2017-02-13,36.099998474121094,36.45000076293945,35.400001525878906,35.650001525878906,35.650001525878906,24888
2017-02-14,36.0,36.0,35.0,35.25,35.25,7159
2017-02-15,34.400001525878906,34.650001525878906,33.75,33.95000076293945,33.95000076293945,18463
2017-02-16,33.349998474121094,34.0,33.25,33.95000076293945,33.95000076293945,4052
2017-02-17,33.599998474121094,33.900001525878906,33.45000076293945,33.650001525878906,33.650001525878906,2669
2017-02-20,33.29999923706055,34.29999923706055,33.29999923706055,33.79999923706055,33.79999923706055,23511
2017-02-21,34.099998474121094,34.5,33.5,33.70000076293945,33.70000076293945,6730
2017-02-22,33.400001525878906,33.75,32.650001525878906,32.849998474121094,32.849998474121094,12063
2017-02-23,32.95000076293945,33.5,31.5,31.799999237060547,31.799999237060547,22509
2017-02-27,32.04999923706055,32.29999923706055,31.700000762939453,31.899999618530273,31.899999618530273,17092
2017-02-28,32.0,32.400001525878906,32.0,32.099998474121094,32.099998474121094,11530
2017-03-01,32.0,33.0,32.0,32.900001525878906,32.900001525878906,19982
2017-03-02,32.79999923706055,34.650001525878906,32.150001525878906,33.29999923706055,33.29999923706055,105839
2017-03-03,34.099998474121094,34.20000076293945,33.0,33.599998474121094,33.599998474121094,33716
2017-03-06,33.29999923706055,33.5,32.400001525878906,32.75,32.75,14830
2017-03-07,32.04999923706055,32.75,32.04999923706055,32.29999923706055,32.29999923706055,8462
2017-03-08,32.0,32.29999923706055,31.0,31.899999618530273,31.899999618530273,9975
2017-03-09,31.450000762939453,31.799999237060547,30.700000762939453,31.149999618530273,31.149999618530273,19503
2017-03-10,31.0,31.700000762939453,31.0,31.5,31.5,9195
2017-03-14,32.25,32.25,30.850000381469727,31.649999618530273,31.649999618530273,7135
2017-03-15,31.200000762939453,32.099998474121094,31.200000762939453,31.950000762939453,31.950000762939453,19621
2017-03-16,31.950000762939453,32.650001525878906,31.600000381469727,32.150001525878906,32.150001525878906,16606
2017-03-17,32.25,32.5,31.950000762939453,31.950000762939453,31.950000762939453,14857
2017-03-20,33.0,34.70000076293945,31.799999237060547,32.0,32.0,159344
2017-03-21,31.950000762939453,32.349998474121094,31.75,32.20000076293945,32.20000076293945,22353
2017-03-22,32.0,32.5,31.25,31.450000762939453,31.450000762939453,32812
2017-03-23,31.299999237060547,32.599998474121094,31.299999237060547,32.29999923706055,32.29999923706055,21802
2017-03-24,32.75,34.400001525878906,32.5,33.0,33.0,25882
2017-03-27,33.75,34.099998474121094,32.20000076293945,32.400001525878906,32.400001525878906,22751
2017-03-28,32.849998474121094,33.150001525878906,32.0,32.099998474121094,32.099998474121094,6569
2017-03-29,32.349998474121094,32.95000076293945,31.950000762939453,32.150001525878906,32.150001525878906,29055
2017-03-30,32.20000076293945,33.5,32.20000076293945,33.400001525878906,33.400001525878906,17361
2017-03-31,33.900001525878906,33.900001525878906,32.45000076293945,33.04999923706055,33.04999923706055,34837
2017-04-03,32.95000076293945,33.20000076293945,32.70000076293945,33.04999923706055,33.04999923706055,13117
2017-04-05,32.0,33.849998474121094,32.0,32.70000076293945,32.70000076293945,58422
2017-04-06,32.70000076293945,33.29999923706055,32.54999923706055,33.099998474121094,33.099998474121094,23003
2017-04-07,33.599998474121094,33.599998474121094,31.149999618530273,31.700000762939453,31.700000762939453,68793
2017-04-10,31.850000381469727,32.70000076293945,31.850000381469727,32.5,32.5,22910
2017-04-11,32.5,32.54999923706055,31.75,32.20000076293945,32.20000076293945,6455
2017-04-12,32.150001525878906,32.900001525878906,31.200000762939453,31.649999618530273,31.649999618530273,20002
2017-04-13,31.75,31.950000762939453,31.25,31.399999618530273,31.399999618530273,18855
2017-04-17,32.0,32.0,30.75,31.0,31.0,8463
2017-04-18,31.350000381469727,31.350000381469727,30.100000381469727,30.25,30.25,19047
2017-04-19,30.100000381469727,30.149999618530273,29.799999237060547,30.049999237060547,30.049999237060547,8829
2017-04-20,30.049999237060547,30.600000381469727,29.899999618530273,30.100000381469727,30.100000381469727,29490
2017-04-21,30.950000762939453,31.0,30.299999237060547,30.549999237060547,30.549999237060547,8339
2017-04-24,30.649999618530273,30.799999237060547,29.75,30.0,30.0,53389
2017-04-25,29.899999618530273,30.100000381469727,28.299999237060547,28.950000762939453,28.950000762939453,46207
2017-04-26,28.649999618530273,30.0,28.649999618530273,29.100000381469727,29.100000381469727,54837
2017-04-27,29.0,29.200000762939453,28.649999618530273,28.950000762939453,28.950000762939453,28820
2017-04-28,28.799999237060547,29.049999237060547,28.600000381469727,28.950000762939453,28.950000762939453,4832
2017-05-02,29.549999237060547,30.350000381469727,28.5,29.200000762939453,29.200000762939453,41984
2017-05-03,29.049999237060547,29.100000381469727,28.649999618530273,28.950000762939453,28.950000762939453,7515
2017-05-04,28.799999237060547,29.350000381469727,28.600000381469727,29.049999237060547,29.049999237060547,11584
2017-05-05,29.0,29.100000381469727,28.5,28.950000762939453,28.950000762939453,12434
2017-05-08,28.700000762939453,30.850000381469727,28.700000762939453,29.049999237060547,29.049999237060547,28579
2017-05-09,29.200000762939453,29.649999618530273,28.899999618530273,29.299999237060547,29.299999237060547,16943
2017-05-10,29.149999618530273,33.400001525878906,29.100000381469727,30.75,30.75,133763
2017-05-11,31.0,32.349998474121094,30.899999618530273,31.200000762939453,31.200000762939453,67605
2017-05-12,31.5,31.5,30.700000762939453,31.0,31.0,8823
2017-05-15,31.25,31.899999618530273,29.75,30.0,30.0,18287
2017-05-16,30.25,30.25,29.399999618530273,29.899999618530273,29.899999618530273,12561
2017-05-17,29.75,30.0,29.5,29.75,29.75,7956
2017-05-18,29.25,29.75,29.100000381469727,29.299999237060547,29.299999237060547,12671
2017-05-19,29.5,30.0,28.950000762939453,29.049999237060547,29.049999237060547,6314
2017-05-22,29.100000381469727,29.450000762939453,28.350000381469727,28.700000762939453,28.700000762939453,17453
2017-05-23,28.200000762939453,28.5,27.049999237060547,28.200000762939453,28.200000762939453,31473
2017-05-24,27.950000762939453,27.950000762939453,26.700000762939453,27.200000762939453,27.200000762939453,16318
2017-05-25,27.200000762939453,28.75,27.149999618530273,28.600000381469727,28.600000381469727,9436
2017-05-26,28.700000762939453,29.700000762939453,28.700000762939453,28.850000381469727,28.850000381469727,10292
2017-05-29,28.899999618530273,29.0,28.700000762939453,28.850000381469727,28.850000381469727,2521
2017-05-30,27.75,28.850000381469727,27.350000381469727,27.799999237060547,27.799999237060547,16969
2017-05-31,28.0,28.0,27.700000762939453,27.700000762939453,27.700000762939453,3973
2017-06-01,27.75,27.75,27.25,27.299999237060547,27.299999237060547,7277
2017-06-02,27.450000762939453,27.600000381469727,27.200000762939453,27.299999237060547,27.299999237060547,3133
2017-06-05,27.950000762939453,28.049999237060547,27.600000381469727,27.850000381469727,27.850000381469727,14715
2017-06-06,27.5,27.600000381469727,27.200000762939453,27.25,27.25,9910
2017-06-07,27.450000762939453,27.75,27.100000381469727,27.149999618530273,27.149999618530273,16044
2017-06-08,27.149999618530273,27.149999618530273,26.299999237060547,26.350000381469727,26.350000381469727,12960
2017-06-09,26.799999237060547,28.0,26.799999237060547,27.049999237060547,27.049999237060547,24344
2017-06-12,26.450000762939453,26.850000381469727,26.450000762939453,26.600000381469727,26.600000381469727,600
2017-06-13,26.899999618530273,28.549999237060547,26.899999618530273,27.799999237060547,27.799999237060547,29250
2017-06-14,27.649999618530273,28.299999237060547,27.049999237060547,27.25,27.25,4745
2017-06-15,27.049999237060547,27.149999618530273,26.75,26.850000381469727,26.850000381469727,6052
2017-06-16,26.5,27.0,26.5,26.600000381469727,26.600000381469727,2835
2017-06-19,26.649999618530273,27.299999237060547,26.649999618530273,26.799999237060547,26.799999237060547,7100
2017-06-20,27.100000381469727,27.100000381469727,26.5,26.700000762939453,26.700000762939453,7695
2017-06-21,26.549999237060547,26.75,26.549999237060547,26.700000762939453,26.700000762939453,1711
2017-06-22,26.5,27.100000381469727,26.5,26.700000762939453,26.700000762939453,5048
2017-06-23,26.950000762939453,26.950000762939453,26.0,26.100000381469727,26.100000381469727,13178
2017-06-27,25.75,26.0,25.0,25.200000762939453,25.200000762939453,16908
2017-06-28,25.799999237060547,25.799999237060547,24.299999237060547,24.549999237060547,24.549999237060547,17816
2017-06-29,24.5,24.850000381469727,24.299999237060547,24.600000381469727,24.600000381469727,15114
2017-06-30,25.899999618530273,25.899999618530273,24.0,24.200000762939453,24.200000762939453,10507
2017-07-03,24.200000762939453,24.700000762939453,24.200000762939453,24.5,24.5,2637
2017-07-04,24.5,24.600000381469727,24.149999618530273,24.549999237060547,24.549999237060547,4892
2017-07-05,25.0,25.600000381469727,25.0,25.450000762939453,25.450000762939453,7100
2017-07-06,24.200000762939453,25.799999237060547,24.200000762939453,25.100000381469727,25.100000381469727,5781
2017-07-07,25.25,25.450000762939453,24.899999618530273,25.100000381469727,25.100000381469727,20984
2017-07-10,24.75,25.5,24.75,25.0,25.0,10581
2017-07-11,25.100000381469727,25.5,24.5,24.600000381469727,24.600000381469727,6910
2017-07-12,24.700000762939453,25.0,24.600000381469727,24.649999618530273,24.649999618530273,6395
2017-07-13,24.549999237060547,24.899999618530273,24.5,24.5,24.5,27405
2017-07-14,24.850000381469727,25.049999237060547,24.600000381469727,24.899999618530273,24.899999618530273,7295
2017-07-17,25.0,25.5,25.0,25.450000762939453,25.450000762939453,5610
2017-07-18,25.25,25.450000762939453,24.600000381469727,24.899999618530273,24.899999618530273,6679
2017-07-19,24.649999618530273,25.0,24.399999618530273,24.5,24.5,18738
2017-07-20,24.850000381469727,24.899999618530273,24.549999237060547,24.799999237060547,24.799999237060547,7992
2017-07-21,24.850000381469727,24.899999618530273,24.700000762939453,24.700000762939453,24.700000762939453,856
2017-07-24,24.5,25.0,24.399999618530273,24.700000762939453,24.700000762939453,10650
2017-07-25,24.75,25.0,24.399999618530273,24.850000381469727,24.850000381469727,4546
2017-07-26,24.700000762939453,25.0,24.549999237060547,24.600000381469727,24.600000381469727,8251
2017-07-27,24.0,24.700000762939453,23.5,23.549999237060547,23.549999237060547,29741
2017-07-28,24.600000381469727,24.600000381469727,23.350000381469727,23.399999618530273,23.399999618530273,12833
2017-07-31,23.049999237060547,23.850000381469727,22.850000381469727,23.149999618530273,23.149999618530273,8455
2017-08-01,23.600000381469727,23.799999237060547,22.850000381469727,23.450000762939453,23.450000762939453,7928
2017-08-02,23.0,23.399999618530273,22.850000381469727,23.25,23.25,4990
2017-08-03,22.899999618530273,23.399999618530273,22.399999618530273,22.5,22.5,1756
2017-08-04,22.299999237060547,22.600000381469727,21.899999618530273,22.149999618530273,22.149999618530273,19562
2017-08-07,22.0,22.75,21.799999237060547,21.899999618530273,21.899999618530273,14823
2017-08-08,21.850000381469727,21.850000381469727,20.799999237060547,21.100000381469727,21.100000381469727,12080
2017-08-09,20.950000762939453,20.950000762939453,20.350000381469727,20.399999618530273,20.399999618530273,6373
2017-08-10,20.299999237060547,20.450000762939453,19.799999237060547,19.799999237060547,19.799999237060547,12744
2017-08-11,19.0,20.450000762939453,18.049999237060547,20.200000762939453,20.200000762939453,18836
2017-08-14,20.5,24.100000381469727,20.5,23.75,23.75,89342
2017-08-16,23.700000762939453,27.5,22.0,27.200000762939453,27.200000762939453,154102
2017-08-17,27.200000762939453,29.700000762939453,26.899999618530273,27.899999618530273,27.899999618530273,63669
2017-08-18,27.299999237060547,28.25,27.200000762939453,27.5,27.5,8886
2017-08-21,27.950000762939453,28.200000762939453,26.350000381469727,26.600000381469727,26.600000381469727,32491
2017-08-22,27.25,27.25,24.0,24.149999618530273,24.149999618530273,14113
2017-08-23,24.25,24.350000381469727,23.25,23.600000381469727,23.600000381469727,39714
2017-08-24,23.950000762939453,24.399999618530273,23.399999618530273,23.950000762939453,23.950000762939453,7061
2017-08-28,22.25,24.049999237060547,22.25,23.5,23.5,8566
2017-08-29,23.5,23.600000381469727,23.5,23.600000381469727,23.600000381469727,510
2017-08-30,23.5,23.5,23.200000762939453,23.299999237060547,23.299999237060547,1696
2017-08-31,23.299999237060547,23.399999618530273,22.799999237060547,23.0,23.0,4405
2017-09-01,23.399999618530273,23.700000762939453,23.100000381469727,23.649999618530273,23.649999618530273,2185
2017-09-04,23.5,24.399999618530273,23.5,24.25,24.25,3245
2017-09-05,24.75,25.350000381469727,24.399999618530273,24.549999237060547,24.549999237060547,8048
2017-09-06,24.299999237060547,24.450000762939453,24.0,24.0,24.0,3009
2017-09-07,24.100000381469727,24.200000762939453,23.700000762939453,23.799999237060547,23.799999237060547,713
2017-09-08,23.700000762939453,24.25,23.700000762939453,24.0,24.0,4431
2017-09-11,23.600000381469727,24.100000381469727,23.5,23.75,23.75,1560
2017-09-12,25.0,25.0,23.399999618530273,23.600000381469727,23.600000381469727,4492
2017-09-13,23.700000762939453,24.5,23.700000762939453,23.799999237060547,23.799999237060547,11132
2017-09-14,24.200000762939453,24.5,23.700000762939453,23.75,23.75,5721
2017-09-15,23.100000381469727,24.799999237060547,23.100000381469727,24.549999237060547,24.549999237060547,18355
2017-09-18,24.600000381469727,25.399999618530273,24.350000381469727,24.350000381469727,24.350000381469727,28539
2017-09-19,24.450000762939453,28.399999618530273,24.450000762939453,26.850000381469727,26.850000381469727,95016
2017-09-20,27.25,28.049999237060547,25.25,27.049999237060547,27.049999237060547,84813
2017-09-21,26.299999237060547,26.450000762939453,25.399999618530273,25.549999237060547,25.549999237060547,26721
2017-09-22,25.200000762939453,25.850000381469727,23.600000381469727,24.200000762939453,24.200000762939453,48149
2017-09-25,24.299999237060547,24.350000381469727,23.299999237060547,23.600000381469727,23.600000381469727,38067
2017-09-26,23.600000381469727,24.600000381469727,23.200000762939453,24.200000762939453,24.200000762939453,26072
2017-09-27,25.0,25.0,23.649999618530273,24.25,24.25,33506
2017-09-28,23.5,24.399999618530273,23.5,24.149999618530273,24.149999618530273,9440
2017-09-29,24.950000762939453,25.350000381469727,23.399999618530273,23.649999618530273,23.649999618530273,12007
2017-10-03,24.700000762939453,26.5,23.5,23.649999618530273,23.649999618530273,326742
2017-10-04,23.299999237060547,28.350000381469727,23.0,27.75,27.75,527563
2017-10-05,28.0,28.899999618530273,25.450000762939453,25.700000762939453,25.700000762939453,65924
2017-10-06,25.850000381469727,26.299999237060547,25.850000381469727,26.0,26.0,5880
2017-10-09,26.100000381469727,26.600000381469727,25.600000381469727,25.649999618530273,25.649999618530273,10869
2017-10-10,25.649999618530273,26.200000762939453,25.200000762939453,25.549999237060547,25.549999237060547,41992
2017-10-11,25.5,25.5,24.899999618530273,25.149999618530273,25.149999618530273,20297
2017-10-12,25.200000762939453,25.299999237060547,24.549999237060547,24.850000381469727,24.850000381469727,15737
2017-10-13,25.0,27.049999237060547,24.600000381469727,25.600000381469727,25.600000381469727,56496
2017-10-16,25.450000762939453,26.049999237060547,24.0,24.450000762939453,24.450000762939453,68420
2017-10-17,25.0,26.149999618530273,24.549999237060547,25.799999237060547,25.799999237060547,19881
2017-10-18,26.149999618530273,26.799999237060547,25.149999618530273,26.200000762939453,26.200000762939453,55118
2017-10-19,26.0,26.950000762939453,25.549999237060547,25.850000381469727,25.850000381469727,6281
2017-10-23,25.549999237060547,26.299999237060547,24.600000381469727,25.049999237060547,25.049999237060547,9051
2017-10-24,25.049999237060547,25.25,25.049999237060547,25.100000381469727,25.100000381469727,1776
2017-10-25,25.700000762939453,25.700000762939453,24.950000762939453,25.450000762939453,25.450000762939453,12139
2017-10-26,25.549999237060547,25.600000381469727,24.75,25.049999237060547,25.049999237060547,45336
2017-10-27,25.399999618530273,25.75,25.049999237060547,25.100000381469727,25.100000381469727,46785
2017-10-30,25.350000381469727,25.5,24.799999237060547,25.350000381469727,25.350000381469727,39360
2017-10-31,25.200000762939453,25.600000381469727,24.899999618530273,25.100000381469727,25.100000381469727,23668
2017-11-01,25.700000762939453,25.799999237060547,25.0,25.100000381469727,25.100000381469727,20509
2017-11-02,25.549999237060547,26.549999237060547,25.299999237060547,25.850000381469727,25.850000381469727,24664
2017-11-03,26.100000381469727,27.5,25.5,25.850000381469727,25.850000381469727,73262
2017-11-06,26.200000762939453,26.25,25.399999618530273,25.700000762939453,25.700000762939453,27739
2017-11-07,26.850000381469727,26.850000381469727,24.799999237060547,24.950000762939453,24.950000762939453,22698
2017-11-08,25.25,27.049999237060547,24.75,25.75,25.75,47042
2017-11-09,26.350000381469727,26.549999237060547,25.0,25.200000762939453,25.200000762939453,25677
2017-11-10,25.5,26.299999237060547,25.399999618530273,25.899999618530273,25.899999618530273,17568
2017-11-13,26.0,28.350000381469727,25.450000762939453,27.100000381469727,27.100000381469727,63743
2017-11-14,27.100000381469727,28.700000762939453,26.200000762939453,26.549999237060547,26.549999237060547,75906
2017-11-15,25.25,25.649999618530273,24.100000381469727,24.75,24.75,30349
2017-11-16,25.399999618530273,25.5,24.850000381469727,24.950000762939453,24.950000762939453,20935
2017-11-17,25.200000762939453,25.75,24.700000762939453,25.100000381469727,25.100000381469727,41173
2017-11-20,25.0,25.399999618530273,24.649999618530273,24.899999618530273,24.899999618530273,10413
2017-11-21,25.049999237060547,25.350000381469727,24.0,24.799999237060547,24.799999237060547,35188
2017-11-22,25.299999237060547,26.700000762939453,24.5,25.899999618530273,25.899999618530273,25138
2017-11-23,26.75,27.75,26.600000381469727,27.0,27.0,83121
2017-11-24,26.450000762939453,27.200000762939453,26.200000762939453,27.100000381469727,27.100000381469727,17603
2017-11-27,26.799999237060547,27.25,26.350000381469727,26.700000762939453,26.700000762939453,17451
2017-11-28,27.200000762939453,27.399999618530273,26.299999237060547,26.399999618530273,26.399999618530273,20353
2017-11-29,26.5,26.5,26.0,26.200000762939453,26.200000762939453,5719
2017-11-30,26.399999618530273,26.799999237060547,25.5,25.899999618530273,25.899999618530273,48657
2017-12-01,26.25,26.850000381469727,25.799999237060547,26.049999237060547,26.049999237060547,37499
2017-12-04,26.049999237060547,26.049999237060547,25.200000762939453,25.5,25.5,3528
2017-12-05,26.049999237060547,26.049999237060547,24.850000381469727,25.100000381469727,25.100000381469727,3477
2017-12-06,25.5,28.200000762939453,25.299999237060547,26.200000762939453,26.200000762939453,34139
2017-12-07,27.0,27.799999237060547,26.399999618530273,26.899999618530273,26.899999618530273,389387
2017-12-08,27.450000762939453,29.25,26.850000381469727,27.850000381469727,27.850000381469727,201836
2017-12-11,28.0,30.899999618530273,28.0,29.350000381469727,29.350000381469727,222798
2017-12-12,29.0,29.399999618530273,27.5,27.799999237060547,27.799999237060547,18963
2017-12-13,28.0,29.850000381469727,26.950000762939453,27.049999237060547,27.049999237060547,32391
2017-12-14,27.549999237060547,28.299999237060547,27.049999237060547,27.350000381469727,27.350000381469727,12521
2017-12-15,28.350000381469727,28.5,27.399999618530273,27.799999237060547,27.799999237060547,13861
2017-12-18,27.5,28.25,27.350000381469727,27.399999618530273,27.399999618530273,5950
2017-12-19,27.600000381469727,29.0,27.5,27.700000762939453,27.700000762939453,61608
2017-12-20,27.899999618530273,28.450000762939453,27.75,27.899999618530273,27.899999618530273,26005
2017-12-21,28.399999618530273,29.100000381469727,28.299999237060547,28.700000762939453,28.700000762939453,44688
2017-12-22,29.149999618530273,29.350000381469727,28.5,28.600000381469727,28.600000381469727,11932
2017-12-26,28.899999618530273,30.700000762939453,28.75,29.399999618530273,29.399999618530273,42808
2017-12-27,29.600000381469727,30.049999237060547,28.549999237060547,28.700000762939453,28.700000762939453,25598
2017-12-28,29.5,29.5,28.0,28.700000762939453,28.700000762939453,55017
2017-12-29,29.299999237060547,29.700000762939453,28.450000762939453,29.25,29.25,37477
